# Wavelength_[A] F_lambda_[norm]
1150.000 2.55588
1155.000 2.85923
1160.000 1.99775
1165.000 0.00000
1170.000 0.07819
1175.000 0.00000
1180.000 0.00000
1185.000 0.00000
1190.000 0.00000
1195.000 0.00000
1200.000 0.01412
1205.000 0.14279
1210.000 0.31354
1215.000 0.43561
1220.000 0.53799
1225.000 0.46238
1230.000 0.48673
1235.000 0.50995
1240.000 0.46131
1245.000 0.63245
1250.000 1.26253
1255.000 1.51190
1260.000 1.44837
1265.000 2.30095
1270.000 4.03675
1275.000 4.77293
1280.000 6.53843
1285.000 7.64856
1290.000 8.20602
1295.000 9.17641
1300.000 7.99215
1305.000 6.54532
1310.000 7.85738
1315.000 11.46720
1320.000 12.89590
1325.000 12.89376
1330.000 12.19100
1335.000 12.95611
1340.000 15.87899
1345.000 16.14934
1350.000 14.64048
1355.000 13.61427
1360.000 14.02294
1365.000 14.14542
1370.000 14.26831
1375.000 15.12642
1380.000 15.03570
1385.000 15.52581
1390.000 15.82468
1395.000 15.16965
1400.000 15.47727
1405.000 16.23106
1410.000 15.99722
1415.000 16.66121
1420.000 17.84685
1425.000 18.34469
1430.000 17.15607
1435.000 16.68849
1440.000 18.41978
1445.000 19.78320
1450.000 20.90620
1455.000 20.87695
1460.000 20.40975
1465.000 19.20755
1470.000 18.50088
1475.000 18.73948
1480.000 19.51064
1485.000 21.37433
1490.000 22.88950
1495.000 23.17677
1500.000 23.68861
1505.000 21.77574
1510.000 19.30382
1515.000 20.07636
1520.000 21.98685
1525.000 20.46841
1530.000 19.82903
1535.000 20.49826
1540.000 22.19865
1545.000 22.54755
1550.000 21.95583
1555.000 21.14442
1560.000 20.66621
1565.000 21.65676
1570.000 21.28430
1575.000 21.53566
1580.000 23.21160
1585.000 22.98225
1590.000 22.56212
1595.000 22.28366
1600.000 22.78557
1605.000 22.14840
1610.000 22.02509
1615.000 22.08066
1620.000 21.72804
1625.000 21.77874
1630.000 22.01565
1635.000 21.59383
1640.000 21.04628
1645.000 21.48458
1650.000 20.48097
1655.000 18.38170
1660.000 19.36070
1665.000 20.66485
1670.000 18.76312
1675.000 19.84548
1680.000 21.51321
1685.000 21.56896
1690.000 21.36608
1695.000 21.12074
1700.000 21.02572
1705.000 20.76801
1710.000 21.06720
1715.000 20.95275
1720.000 20.23738
1725.000 20.31877
1730.000 21.16349
1735.000 21.09198
1740.000 21.38853
1745.000 21.89722
1750.000 22.46124
1755.000 23.21510
1760.000 21.85855
1765.000 20.83419
1770.000 21.76748
1775.000 22.76208
1780.000 22.66717
1785.000 20.07367
1790.000 17.44487
1795.000 22.00136
1800.000 23.79983
1805.000 22.81456
1810.000 22.65018
1815.000 22.84471
1820.000 23.01243
1825.000 22.71425
1830.000 22.07952
1835.000 21.73524
1840.000 20.73277
1845.000 20.39237
1850.000 20.99487
1855.000 21.00712
1860.000 21.12513
1865.000 21.41998
1870.000 22.01673
1875.000 21.93064
1880.000 21.92783
1885.000 21.80260
1890.000 21.31141
1895.000 20.62310
1900.000 20.14449
1905.000 20.40722
1910.000 20.44861
1915.000 20.38218
1920.000 20.40362
1925.000 20.40867
1930.000 20.74187
1935.000 21.01242
1940.000 21.24220
1945.000 21.28575
1950.000 21.33012
1955.000 21.33764
1960.000 21.27444
1965.000 21.01350
1970.000 21.89507
1975.000 22.67601
1980.000 22.17798
1985.000 22.15900
1990.000 20.56606
1995.000 18.93236
2000.000 19.91211
2005.000 20.35024
2010.000 19.81122
2015.000 19.83357
2020.000 19.76746
2025.000 19.47941
2030.000 20.02226
2035.000 19.61590
2040.000 19.00959
2045.000 19.48774
2050.000 19.80239
2055.000 19.90688
2060.000 19.72242
2065.000 19.11080
2070.000 19.36837
2075.000 20.58385
2080.000 21.46793
2085.000 21.66289
2090.000 21.31523
2095.000 20.30980
2100.000 19.35862
2105.000 19.30118
2110.000 19.86217
2115.000 19.57275
2120.000 19.09654
2125.000 20.27241
2130.000 19.95514
2135.000 18.44229
2140.000 17.29350
2145.000 17.85846
2150.000 19.11462
2155.000 19.59941
2160.000 20.06892
2165.000 18.35776
2170.000 17.44521
2175.000 16.58234
2180.000 16.63577
2185.000 18.11856
2190.000 19.01987
2195.000 19.38489
2200.000 19.65391
2205.000 18.49199
2210.000 17.14359
2215.000 16.24813
2220.000 16.07336
2225.000 16.10122
2230.000 16.43210
2235.000 16.09203
2240.000 16.56069
2245.000 15.71727
2250.000 16.33593
2255.000 16.37692
2260.000 16.14858
2265.000 16.07450
2270.000 16.29652
2275.000 16.25126
2280.000 16.41971
2285.000 16.57286
2290.000 17.32012
2295.000 17.69775
2300.000 17.25590
2305.000 17.06483
2310.000 17.35672
2315.000 17.18385
2320.000 15.73187
2325.000 15.67887
2330.000 16.35283
2335.000 16.09699
2340.000 15.53449
2345.000 15.22119
2350.000 14.97095
2355.000 14.46261
2360.000 14.63235
2365.000 14.38033
2370.000 14.52490
2375.000 14.29060
2380.000 15.20838
2385.000 14.22818
2390.000 12.62431
2395.000 12.47448
2400.000 13.51112
2405.000 13.29471
2410.000 12.34719
2415.000 13.00159
2420.000 13.65358
2425.000 14.19430
2430.000 14.96771
2435.000 14.31195
2440.000 13.82134
2445.000 14.63717
2450.000 15.28080
2455.000 15.43647
2460.000 15.50552
2465.000 15.14719
2470.000 14.27421
2475.000 13.93018
2480.000 14.11662
2485.000 13.48805
2490.000 12.85496
2495.000 12.52768
2500.000 14.73990
2505.000 14.52448
2510.000 13.94625
2515.000 14.51152
2520.000 13.83267
2525.000 13.04226
2530.000 12.89979
2535.000 13.86935
2540.000 13.93907
2545.000 13.23823
2550.000 13.47541
2555.000 13.86927
2560.000 13.98540
2565.000 14.29318
2570.000 15.10818
2575.000 14.61538
2580.000 11.16095
2585.000 10.77742
2590.000 13.37278
2595.000 14.64600
2600.000 14.63443
2605.000 14.31665
2610.000 14.42407
2615.000 14.27939
2620.000 14.74939
2625.000 14.62342
2630.000 14.30464
2635.000 14.90069
2640.000 14.97244
2645.000 15.47112
2650.000 16.09211
2655.000 16.18499
2660.000 15.58292
2665.000 14.98259
2670.000 14.22989
2675.000 14.17954
2680.000 14.98431
2685.000 15.33503
2690.000 14.84617
2695.000 14.02351
2700.000 14.28043
2705.000 14.82495
2710.000 14.03009
2715.000 13.95333
2720.000 13.96663
2725.000 13.75538
2730.000 14.01804
2735.000 14.55665
2740.000 14.49947
2745.000 13.78985
2750.000 13.49185
2755.000 12.95710
2760.000 13.20035
2765.000 13.80723
2770.000 13.91588
2775.000 14.42863
2780.000 15.28859
2785.000 14.61654
2790.000 14.24833
2795.000 13.49707
2800.000 12.01734
2805.000 11.91257
2810.000 12.94430
2815.000 14.44980
2820.000 15.02527
2825.000 14.57403
2830.000 14.10034
2835.000 14.38763
2840.000 14.77867
2845.000 14.56665
2850.000 14.03774
2855.000 13.51484
2860.000 13.49914
2865.000 13.95146
2870.000 14.11161
2875.000 13.93552
2880.000 13.80253
2885.000 14.11116
2890.000 14.42216
2895.000 14.16611
2900.000 14.00162
2905.000 14.29749
2910.000 15.13912
2915.000 15.22247
2920.000 15.27214
2925.000 14.63720
2930.000 14.44311
2935.000 14.68918
2940.000 14.66085
2945.000 15.02814
2950.000 14.38028
2955.000 14.97990
2960.000 15.40379
2965.000 15.06107
2970.000 14.92890
2975.000 15.19745
2980.000 15.08104
2985.000 14.83290
2990.000 15.18613
2995.000 15.04964
3000.000 15.13091
3005.000 14.66388
3010.000 14.99667
3015.000 14.66056
3020.000 14.08663
3025.000 14.26494
3030.000 14.34275
3035.000 14.38434
3040.000 14.87304
3045.000 14.78804
3050.000 14.57752
3055.000 14.57465
3060.000 14.14646
3065.000 13.70328
3070.000 13.45090
3075.000 13.67610
3080.000 14.70040
3085.000 14.71829
3090.000 14.25602
3095.000 14.45619
3100.000 14.21915
3105.000 13.82173
3110.000 13.40833
3115.000 13.30600
3120.000 13.57070
3125.000 14.24676
3130.000 14.82364
3135.000 14.17121
3140.000 13.86095
3145.000 14.54124
3150.000 14.60131
3155.000 14.40051
3160.000 14.11168
3165.000 14.41738
3170.000 14.80424
3175.000 14.70270
3180.000 14.04539
3185.000 14.26893
3190.000 15.09374
3195.000 15.06919
3200.000 14.42266
3205.000 14.44394
3210.000 14.46768
3215.000 14.22861
3220.000 13.91892
3225.000 13.78071
3230.000 13.79843
3235.000 13.88210
3240.000 13.90175
3245.000 13.78482
3250.000 13.72827
3255.000 13.90062
3260.000 14.08675
3265.000 14.06296
3270.000 13.95458
3275.000 13.91249
3280.000 13.84042
3285.000 13.66782
3290.000 13.67382
3295.000 14.05424
3300.000 14.32176
3305.000 14.03523
3310.000 13.62114
3315.000 13.55951
3320.000 13.67639
3325.000 13.71097
3330.000 13.70861
3335.000 13.75509
3340.000 13.79171
3345.000 13.75274
3350.000 13.68888
3355.000 13.65207
3360.000 13.58295
3365.000 13.43116
3370.000 13.29336
3375.000 13.25905
3380.000 13.24206
3385.000 13.15550
3390.000 13.08523
3395.000 13.13800
3400.000 13.33100
3405.000 13.62064
3410.000 13.80910
3415.000 13.74159
3420.000 13.58936
3425.000 13.53042
3430.000 13.44370
3435.000 13.20952
3440.000 13.01326
3445.000 13.03354
3450.000 13.11717
3455.000 13.09540
3460.000 13.06905
3465.000 13.14607
3470.000 13.19336
3475.000 13.08393
3480.000 12.95627
3485.000 12.94937
3490.000 12.93843
3495.000 12.80681
3500.000 12.73422
3505.000 12.88159
3510.000 12.97711
3515.000 12.92728
3520.000 12.88832
3525.000 12.90852
3530.000 13.02024
3535.000 13.13475
3540.000 13.14680
3545.000 13.05895
3550.000 12.97096
3555.000 12.93708
3560.000 12.89817
3565.000 12.74163
3570.000 12.57890
3575.000 12.55998
3580.000 12.55146
3585.000 12.47938
3590.000 12.50288
3595.000 12.59386
3600.000 12.61528
3605.000 12.60292
3610.000 12.41859
3615.000 12.38973
3620.000 12.45810
3625.000 12.60773
3630.000 12.64325
3635.000 12.67610
3640.000 12.70495
3645.000 12.66634
3650.000 12.76563
3655.000 12.93377
3660.000 12.96070
3665.000 12.93288
3670.000 12.90269
3675.000 12.77496
3680.000 12.62431
3685.000 12.59707
3690.000 12.71768
3695.000 12.88241
3700.000 12.94219
3705.000 13.25661
3710.000 13.52926
3715.000 14.15355
3720.000 14.28638
3725.000 15.00269
3730.000 15.07052
3735.000 14.38807
3740.000 16.21212
3745.000 15.77785
3750.000 14.26100
3755.000 16.54384
3760.000 18.40096
3765.000 16.93015
3770.000 14.88647
3775.000 17.64629
3780.000 21.76089
3785.000 22.91294
3790.000 19.98916
3795.000 15.92884
3800.000 16.18785
3805.000 21.26563
3810.000 25.43228
3815.000 26.81475
3820.000 25.99253
3825.000 22.58248
3830.000 17.42770
3835.000 14.41147
3840.000 18.11822
3845.000 23.41788
3850.000 27.66784
3855.000 30.00423
3860.000 31.24943
3865.000 31.51271
3870.000 29.96778
3875.000 26.61474
3880.000 21.96060
3885.000 16.47701
3890.000 15.00146
3895.000 19.43099
3900.000 24.71054
3905.000 28.34855
3910.000 31.10302
3915.000 32.53841
3920.000 33.25606
3925.000 32.67807
3930.000 29.33957
3935.000 28.91623
3940.000 31.11496
3945.000 31.10889
3950.000 29.14766
3955.000 26.39815
3960.000 21.92657
3965.000 16.07843
3970.000 13.86172
3975.000 17.93160
3980.000 23.19749
3985.000 27.37883
3990.000 30.31466
3995.000 31.95449
4000.000 32.91738
4005.000 33.24943
4010.000 33.64623
4015.000 33.78798
4020.000 33.83742
4025.000 33.55197
4030.000 33.24346
4035.000 33.22928
4040.000 33.15413
4045.000 33.03479
4050.000 33.13970
4055.000 32.87579
4060.000 32.45525
4065.000 31.73907
4070.000 30.69182
4075.000 29.49153
4080.000 28.19661
4085.000 26.31895
4090.000 23.09208
4095.000 18.67269
4100.000 15.09163
4105.000 15.66486
4110.000 19.18141
4115.000 22.79934
4120.000 25.75295
4125.000 27.68281
4130.000 28.97096
4135.000 30.25242
4140.000 31.14721
4145.000 31.63523
4150.000 31.89660
4155.000 31.91420
4160.000 31.90987
4165.000 31.83155
4170.000 31.30223
4175.000 30.87472
4180.000 30.67317
4185.000 30.67824
4190.000 30.92617
4195.000 31.06016
4200.000 31.09754
4205.000 31.59853
4210.000 31.74143
4215.000 31.34667
4220.000 30.96462
4225.000 30.48121
4230.000 30.28186
4235.000 30.28574
4240.000 30.23456
4245.000 29.88245
4250.000 29.72842
4255.000 29.74775
4260.000 29.66474
4265.000 29.67375
4270.000 29.48957
4275.000 29.77312
4280.000 30.04523
4285.000 29.90222
4290.000 29.29493
4295.000 28.65682
4300.000 27.70829
4305.000 27.17430
4310.000 26.87397
4315.000 26.46353
4320.000 25.45605
4325.000 23.23408
4330.000 20.07571
4335.000 16.15678
4340.000 13.66482
4345.000 14.82181
4350.000 17.85336
4355.000 21.19093
4360.000 23.81647
4365.000 25.66035
4370.000 26.56793
4375.000 26.93299
4380.000 26.99992
4385.000 26.92993
4390.000 27.11827
4395.000 27.22132
4400.000 27.21293
4405.000 27.30718
4410.000 27.31628
4415.000 27.05650
4420.000 27.13760
4425.000 27.22179
4430.000 26.95492
4435.000 26.83889
4440.000 26.74147
4445.000 26.80152
4450.000 26.90172
4455.000 26.77622
4460.000 26.52851
4465.000 26.26231
4470.000 26.04492
4475.000 26.00060
4480.000 25.63374
4485.000 25.75413
4490.000 25.95736
4495.000 26.09013
4500.000 26.14012
4505.000 26.16848
4510.000 26.19884
4515.000 25.99156
4520.000 25.68387
4525.000 25.45196
4530.000 25.26031
4535.000 25.34739
4540.000 25.35177
4545.000 24.91307
4550.000 24.57596
4555.000 24.67359
4560.000 24.80702
4565.000 24.72844
4570.000 24.53821
4575.000 24.45959
4580.000 24.21315
4585.000 23.94097
4590.000 24.05593
4595.000 24.20714
4600.000 24.20001
4605.000 24.29209
4610.000 24.21887
4615.000 24.02222
4620.000 24.02728
4625.000 23.85227
4630.000 23.66668
4635.000 23.63025
4640.000 23.64824
4645.000 23.59507
4650.000 23.63999
4655.000 23.61072
4660.000 23.54581
4665.000 23.33064
4670.000 23.11860
4675.000 23.01984
4680.000 23.07055
4685.000 23.26727
4690.000 23.12781
4695.000 23.08585
4700.000 23.03234
4705.000 23.01853
4710.000 22.86260
4715.000 22.53658
4720.000 22.37443
4725.000 22.39319
4730.000 22.26497
4735.000 22.06394
4740.000 22.06067
4745.000 22.13390
4750.000 22.12867
4755.000 21.99310
4760.000 21.70674
4765.000 21.60501
4770.000 21.58389
4775.000 21.63394
4780.000 21.57755
4785.000 21.54875
4790.000 21.60929
4795.000 21.55291
4800.000 21.19598
4805.000 20.95330
4810.000 20.74873
4815.000 20.59906
4820.000 20.34674
4825.000 19.88962
4830.000 19.44775
4835.000 18.91984
4840.000 18.18003
4845.000 16.95749
4850.000 14.99554
4855.000 12.32376
4860.000 10.40981
4865.000 11.24782
4870.000 13.34789
4875.000 15.26508
4880.000 16.86129
4885.000 17.92215
4890.000 18.65884
4895.000 19.13141
4900.000 19.27464
4905.000 19.42631
4910.000 19.55126
4915.000 19.50999
4920.000 19.25660
4925.000 19.28381
4930.000 19.41687
4935.000 19.34817
4940.000 19.53566
4945.000 19.73098
4950.000 19.63716
4955.000 19.41756
4960.000 19.50511
4965.000 19.59603
4970.000 19.59469
4975.000 19.59934
4980.000 19.32120
4985.000 19.10128
4990.000 19.15623
4995.000 19.01021
5000.000 18.79940
5005.000 18.80834
5010.000 18.76950
5015.000 18.49953
5020.000 18.44634
5025.000 18.67891
5030.000 18.65860
5035.000 18.62791
5040.000 18.56828
5045.000 18.56991
5050.000 18.44502
5055.000 18.40215
5060.000 18.50491
5065.000 18.39222
5070.000 18.40593
5075.000 18.27885
5080.000 18.19911
5085.000 18.32920
5090.000 18.36896
5095.000 18.21164
5100.000 18.09218
5105.000 18.15909
5110.000 18.18031
5115.000 18.29495
5120.000 18.17941
5125.000 17.97885
5130.000 17.94192
5135.000 17.87449
5140.000 17.76134
5145.000 17.72042
5150.000 17.61445
5155.000 17.47244
5160.000 17.35592
5165.000 16.93126
5170.000 16.70833
5175.000 16.97929
5180.000 16.99353
5185.000 16.85575
5190.000 16.92467
5195.000 16.92638
5200.000 16.77265
5205.000 16.61736
5210.000 16.69227
5215.000 16.82650
5220.000 16.89661
5225.000 16.73045
5230.000 16.63345
5235.000 16.61090
5240.000 16.56775
5245.000 16.56862
5250.000 16.50536
5255.000 16.54475
5260.000 16.39052
5265.000 16.00644
5270.000 15.82676
5275.000 15.82914
5280.000 15.91771
5285.000 16.08927
5290.000 16.28067
5295.000 16.32151
5300.000 16.20581
5305.000 16.04656
5310.000 15.86567
5315.000 15.76586
5320.000 15.80771
5325.000 15.69331
5330.000 15.60497
5335.000 15.60799
5340.000 15.65569
5345.000 15.72506
5350.000 15.85637
5355.000 15.89553
5360.000 15.66576
5365.000 15.42618
5370.000 15.30573
5375.000 15.36854
5380.000 15.42151
5385.000 15.45871
5390.000 15.45279
5395.000 15.29219
5400.000 15.11863
5405.000 15.01212
5410.000 15.03877
5415.000 15.08490
5420.000 15.06791
5425.000 14.95530
5430.000 14.85430
5435.000 14.87342
5440.000 14.88332
5445.000 14.88768
5450.000 14.89248
5455.000 14.88616
5460.000 14.87759
5465.000 14.82219
5470.000 14.72928
5475.000 14.66036
5480.000 14.66249
5485.000 14.68307
5490.000 14.58309
5495.000 14.53602
5500.000 14.50545
5505.000 14.38543
5510.000 14.27990
5515.000 14.35748
5520.000 14.35834
5525.000 14.25892
5530.000 14.17866
5535.000 14.19342
5540.000 14.13562
5545.000 14.10868
5550.000 14.21808
5555.000 14.24271
5560.000 14.19419
5565.000 14.07853
5570.000 14.00287
5575.000 13.99378
5580.000 13.97330
5585.000 13.85720
5590.000 13.78562
5595.000 13.66188
5600.000 13.63767
5605.000 13.65815
5610.000 13.63969
5615.000 13.51901
5620.000 13.51958
5625.000 13.56041
5630.000 13.55530
5635.000 13.56918
5640.000 13.55856
5645.000 13.49494
5650.000 13.40150
5655.000 13.27764
5660.000 13.13892
5665.000 13.15765
5670.000 13.21895
5675.000 13.23127
5680.000 13.11980
5685.000 13.01544
5690.000 13.03060
5695.000 12.97580
5700.000 12.92507
5705.000 12.91969
5710.000 12.97962
5715.000 13.03631
5720.000 12.99021
5725.000 12.94360
5730.000 12.88688
5735.000 12.83214
5740.000 12.76122
5745.000 12.67586
5750.000 12.61206
5755.000 12.60321
5760.000 12.68783
5765.000 12.65128
5770.000 12.53148
5775.000 12.42137
5780.000 12.30209
5785.000 12.31570
5790.000 12.32369
5795.000 12.21751
5800.000 12.20336
5805.000 12.25213
5810.000 12.21264
5815.000 12.19111
5820.000 12.24186
5825.000 12.29140
5830.000 12.33722
5835.000 12.28609
5840.000 12.21061
5845.000 12.14752
5850.000 12.14714
5855.000 12.09735
5860.000 12.15263
5865.000 12.11707
5870.000 12.03743
5875.000 11.94195
5880.000 11.82052
5885.000 11.57360
5890.000 11.36916
5895.000 11.38588
5900.000 11.63997
5905.000 11.68259
5910.000 11.62515
5915.000 11.62470
5920.000 11.61239
5925.000 11.54826
5930.000 11.52718
5935.000 11.52417
5940.000 11.45018
5945.000 11.35090
5950.000 11.31783
5955.000 11.31241
5960.000 11.28996
5965.000 11.32032
5970.000 11.29076
5975.000 11.24476
5980.000 11.21997
5985.000 11.20883
5990.000 11.14393
5995.000 11.17460
6000.000 11.17409
6005.000 11.12476
6010.000 11.08729
6015.000 11.05241
6020.000 11.00281
6025.000 10.98428
6030.000 10.95939
6035.000 10.94787
6040.000 10.90070
6045.000 10.91585
6050.000 10.88126
6055.000 10.84625
6060.000 10.83610
6065.000 10.80275
6070.000 10.80601
6075.000 10.73754
6080.000 10.65209
6085.000 10.61802
6090.000 10.61969
6095.000 10.61100
6100.000 10.58510
6105.000 10.52865
6110.000 10.52372
6115.000 10.53904
6120.000 10.50584
6125.000 10.48711
6130.000 10.50134
6135.000 10.46690
6140.000 10.38807
6145.000 10.29832
6150.000 10.22577
6155.000 10.15234
6160.000 10.12649
6165.000 10.19859
6170.000 10.18793
6175.000 10.24983
6180.000 10.22160
6185.000 10.16400
6190.000 10.18449
6195.000 10.26668
6200.000 10.21524
6205.000 10.12499
6210.000 10.07331
6215.000 10.03160
6220.000 9.96392
6225.000 9.90252
6230.000 9.85818
6235.000 9.84490
6240.000 9.82876
6245.000 9.81806
6250.000 9.82813
6255.000 9.86662
6260.000 9.85489
6265.000 9.76887
6270.000 9.66272
6275.000 9.51376
6280.000 9.35515
6285.000 9.49098
6290.000 9.56960
6295.000 9.56836
6300.000 9.50642
6305.000 9.47469
6310.000 9.45567
6315.000 9.41728
6320.000 9.44639
6325.000 9.49655
6330.000 9.46231
6335.000 9.44156
6340.000 9.41184
6345.000 9.31676
6350.000 9.29181
6355.000 9.35672
6360.000 9.37502
6365.000 9.34460
6370.000 9.28035
6375.000 9.29073
6380.000 9.29845
6385.000 9.24870
6390.000 9.21022
6395.000 9.21983
6400.000 9.23617
6405.000 9.19945
6410.000 9.14400
6415.000 9.12063
6420.000 9.08947
6425.000 9.11782
6430.000 9.09651
6435.000 9.09914
6440.000 9.10846
6445.000 9.02713
6450.000 8.96909
6455.000 8.90887
6460.000 8.89892
6465.000 8.91212
6470.000 8.88044
6475.000 8.80876
6480.000 8.76562
6485.000 8.76742
6490.000 8.69507
6495.000 8.62352
6500.000 8.67995
6505.000 8.69704
6510.000 8.61221
6515.000 8.49836
6520.000 8.43387
6525.000 8.35009
6530.000 8.23763
6535.000 8.12805
6540.000 7.86690
6545.000 7.46110
6550.000 6.95842
6555.000 6.26681
6560.000 5.44418
6565.000 5.39289
6570.000 6.19658
6575.000 6.89955
6580.000 7.40734
6585.000 7.74072
6590.000 7.98694
6595.000 8.11164
6600.000 8.17834
6605.000 8.19758
6610.000 8.23354
6615.000 8.29367
6620.000 8.28006
6625.000 8.30873
6630.000 8.27643
6635.000 8.25450
6640.000 8.27996
6645.000 8.26709
6650.000 8.24938
6655.000 8.20656
6660.000 8.18856
6665.000 8.11769
6670.000 8.11183
6675.000 8.07445
6680.000 8.08609
6685.000 8.11489
6690.000 8.11818
6695.000 8.10003
6700.000 8.05598
6705.000 8.04659
6710.000 8.00350
6715.000 7.95469
6720.000 7.96025
6725.000 7.98276
6730.000 7.93118
6735.000 7.90824
6740.000 7.86885
6745.000 7.86441
6750.000 7.85921
6755.000 7.83655
6760.000 7.82908
6765.000 7.80755
6770.000 7.78501
6775.000 7.76883
6780.000 7.77299
6785.000 7.74049
6790.000 7.77259
6795.000 7.77835
6800.000 7.75621
6805.000 7.75483
6810.000 7.72219
6815.000 7.71667
6820.000 7.70269
6825.000 7.66099
6830.000 7.63474
6835.000 7.61244
6840.000 7.59252
6845.000 7.59698
6850.000 7.62242
6855.000 7.63664
6860.000 7.62093
6865.000 7.58604
6870.000 7.56129
6875.000 7.56327
6880.000 7.57877
6885.000 7.57455
6890.000 7.52486
6895.000 7.43584
6900.000 7.34535
6905.000 7.29645
6910.000 7.30610
6915.000 7.35419
6920.000 7.39833
6925.000 7.40317
6930.000 7.36346
6935.000 7.30405
6940.000 7.25966
6945.000 7.25131
6950.000 7.27378
6955.000 7.30111
6960.000 7.30680
6965.000 7.28276
6970.000 7.24112
6975.000 7.21181
6980.000 7.19856
6985.000 7.20914
6990.000 7.16019
6995.000 7.15438
7000.000 7.13517
7005.000 7.09090
7010.000 7.08618
7015.000 7.05608
7020.000 7.02900
7025.000 7.00242
7030.000 7.02313
7035.000 7.01236
7040.000 6.97171
7045.000 6.98057
7050.000 7.01986
7055.000 7.02161
7060.000 7.01789
7065.000 7.00563
7070.000 6.99121
7075.000 6.95080
7080.000 6.94008
7085.000 6.93956
7090.000 6.92325
7095.000 6.90678
7100.000 6.88870
7105.000 6.84645
7110.000 6.80090
7115.000 6.76480
7120.000 6.77414
7125.000 6.81457
7130.000 6.76182
7135.000 6.77323
7140.000 6.81741
7145.000 6.77387
7150.000 6.76753
7155.000 6.83780
7160.000 6.81269
7165.000 6.74616
7170.000 6.58994
7175.000 6.46952
7180.000 6.39177
7185.000 6.26993
7190.000 6.27575
7195.000 6.25996
7200.000 6.21483
7205.000 6.19987
7210.000 6.44071
7215.000 6.60463
7220.000 6.64868
7225.000 6.59013
7230.000 6.47036
7235.000 6.32951
7240.000 6.32821
7245.000 6.26047
7250.000 6.24006
7255.000 6.23195
7260.000 6.33276
7265.000 6.37498
7270.000 6.40022
7275.000 6.26941
7280.000 6.22826
7285.000 6.30880
7290.000 6.20514
7295.000 6.22338
7300.000 6.23739
7305.000 6.25324
7310.000 6.22219
7315.000 6.21804
7320.000 6.19136
7325.000 6.19872
7330.000 6.16269
7335.000 6.19249
7340.000 6.17639
7345.000 6.15875
7350.000 6.14477
7355.000 6.13141
7360.000 6.11415
7365.000 6.11506
7370.000 6.08055
7375.000 6.07992
7380.000 6.08958
7385.000 6.10105
7390.000 6.13030
7395.000 6.09591
7400.000 6.07522
7405.000 6.02378
7410.000 5.96420
7415.000 5.99865
7420.000 6.06861
7425.000 6.03216
7430.000 6.03863
7435.000 6.01685
7440.000 5.96837
7445.000 5.90927
7450.000 5.87175
7455.000 5.84220
7460.000 5.79393
7465.000 5.79180
7470.000 5.79659
7475.000 5.84595
7480.000 5.88414
7485.000 5.89289
7490.000 5.86179
7495.000 5.80681
7500.000 5.77257
7505.000 5.74485
7510.000 5.74725
7515.000 5.77942
7520.000 5.80765
7525.000 5.80073
7530.000 5.76937
7535.000 5.73571
7540.000 5.73700
7545.000 5.74347
7550.000 5.75001
7555.000 5.72622
7560.000 5.66976
7565.000 5.59697
7570.000 5.57320
7575.000 5.61694
7580.000 5.73825
7585.000 5.85742
7590.000 5.88232
7595.000 5.77884
7600.000 5.59929
7605.000 5.44795
7610.000 5.41002
7615.000 5.49111
7620.000 5.61239
7625.000 5.67430
7630.000 5.62864
7635.000 5.50612
7640.000 5.38606
7645.000 5.33418
7650.000 5.35796
7655.000 5.41515
7660.000 5.45823
7665.000 5.46945
7670.000 5.46298
7675.000 5.45917
7680.000 5.45806
7685.000 5.43881
7690.000 5.38796
7695.000 5.31901
7700.000 5.26844
7705.000 5.27044
7710.000 5.32633
7715.000 5.40074
7720.000 5.44651
7725.000 5.34064
7730.000 5.31575
7735.000 5.28657
7740.000 5.26162
7745.000 5.26640
7750.000 5.31004
7755.000 5.33583
7760.000 5.31696
7765.000 5.25009
7770.000 5.08446
7775.000 4.98642
7780.000 5.13943
7785.000 5.23695
7790.000 5.27901
7795.000 5.30866
7800.000 5.27965
7805.000 5.24306
7810.000 5.20022
7815.000 5.14901
7820.000 5.13656
7825.000 5.11637
7830.000 5.09311
7835.000 5.09110
7840.000 5.10790
7845.000 5.12094
7850.000 5.13807
7855.000 5.14870
7860.000 5.09609
7865.000 5.06864
7870.000 5.03984
7875.000 5.00713
7880.000 5.01785
7885.000 5.01555
7890.000 5.01207
7895.000 4.96261
7900.000 4.95905
7905.000 4.97287
7910.000 4.95344
7915.000 4.90048
7920.000 4.86313
7925.000 4.84118
7930.000 4.85270
7935.000 4.87517
7940.000 4.87527
7945.000 4.82800
7950.000 4.77618
7955.000 4.73870
7960.000 4.75735
7965.000 4.82584
7970.000 4.88407
7975.000 4.91496
7980.000 4.89290
7985.000 4.85316
7990.000 4.84295
7995.000 4.84694
8000.000 4.85672
8005.000 4.85383
8010.000 4.83180
8015.000 4.76794
8020.000 4.70864
8025.000 4.68669
8030.000 4.70463
8035.000 4.75227
8040.000 4.77770
8045.000 4.77963
8050.000 4.77721
8055.000 4.75849
8060.000 4.72225
8065.000 4.68586
8070.000 4.65349
8075.000 4.63158
8080.000 4.62328
8085.000 4.62394
8090.000 4.61425
8095.000 4.60705
8100.000 4.62467
8105.000 4.60152
8110.000 4.56565
8115.000 4.53909
8120.000 4.52789
8125.000 4.51456
8130.000 4.49084
8135.000 4.43016
8140.000 4.42688
8145.000 4.37759
8150.000 4.33823
8155.000 4.31344
8160.000 4.27686
8165.000 4.23119
8170.000 4.25643
8175.000 4.29981
8180.000 4.23590
8185.000 4.25822
8190.000 4.22260
8195.000 4.20938
8200.000 4.22358
8205.000 4.28072
8210.000 4.32452
8215.000 4.31449
8220.000 4.29623
8225.000 4.22156
8230.000 4.07802
8235.000 4.14348
8240.000 4.23064
8245.000 4.23233
8250.000 4.26513
8255.000 4.24183
8260.000 4.23146
8265.000 4.24642
8270.000 4.26716
8275.000 4.19304
8280.000 4.18210
8285.000 4.18238
8290.000 4.18129
8295.000 4.18474
8300.000 4.16983
8305.000 4.17332
8310.000 4.18949
8315.000 4.18219
8320.000 4.17599
8325.000 4.14648
8330.000 4.17082
8335.000 4.15438
8340.000 4.14396
8345.000 4.16674
8350.000 4.14278
8355.000 4.15829
8360.000 4.14095
8365.000 4.14282
8370.000 4.13390
8375.000 4.13056
8380.000 4.13163
8385.000 4.12468
8390.000 4.11212
8395.000 4.10416
8400.000 4.10015
8405.000 4.08355
8410.000 4.04416
8415.000 4.05517
8420.000 4.05207
8425.000 4.07349
8430.000 4.07587
8435.000 4.07120
8440.000 3.98829
8445.000 3.89410
8450.000 3.95380
8455.000 4.02109
8460.000 3.99961
8465.000 3.96574
8470.000 3.94437
8475.000 3.99537
8480.000 4.01738
8485.000 4.03282
8490.000 4.01048
8495.000 3.85981
8500.000 3.79695
8505.000 3.84880
8510.000 3.92779
8515.000 3.98206
8520.000 4.02135
8525.000 4.02083
8530.000 3.97383
8535.000 3.85240
8540.000 3.62992
8545.000 3.56815
8550.000 3.74022
8555.000 3.86745
8560.000 3.98374
8565.000 4.00793
8570.000 4.02310
8575.000 4.00499
8580.000 3.94828
8585.000 3.86479
8590.000 3.71345
8595.000 3.55491
8600.000 3.51993
8605.000 3.64612
8610.000 3.81349
8615.000 3.93045
8620.000 3.99779
8625.000 4.04400
8630.000 4.03392
8635.000 4.02663
8640.000 3.96107
8645.000 3.90662
8650.000 3.78926
8655.000 3.60960
8660.000 3.33400
8665.000 3.21070
8670.000 3.36456
8675.000 3.57607
8680.000 3.69624
8685.000 3.80019
8690.000 3.90257
8695.000 3.97321
8700.000 3.99478
8705.000 3.99620
8710.000 3.90712
8715.000 3.98807
8720.000 3.94829
8725.000 3.87856
8730.000 3.79228
8735.000 3.64939
8740.000 3.47129
8745.000 3.22044
8750.000 3.07260
8755.000 3.18338
8760.000 3.41905
8765.000 3.62155
8770.000 3.74520
8775.000 3.84025
8780.000 3.92613
8785.000 3.86162
8790.000 3.86634
8795.000 3.87646
8800.000 3.90035
8805.000 3.87688
8810.000 3.98979
8815.000 3.88564
8820.000 3.87629
8825.000 3.95506
8830.000 3.90599
8835.000 3.82080
8840.000 3.70598
8845.000 3.48243
8850.000 3.40264
8855.000 3.14728
8860.000 2.90963
8865.000 2.88971
8870.000 3.13487
8875.000 3.35052
8880.000 3.50536
8885.000 3.67357
8890.000 3.76586
8895.000 3.73236
8900.000 3.76081
8905.000 3.81158
8910.000 3.81294
8915.000 3.84649
8920.000 3.94354
8925.000 3.83834
8930.000 3.94527
8935.000 3.93977
8940.000 3.94752
8945.000 3.90800
8950.000 3.84946
8955.000 3.78842
8960.000 3.72882
8965.000 3.63203
8970.000 3.51068
8975.000 3.45759
8980.000 3.39524
8985.000 3.29244
8990.000 3.14470
8995.000 3.12156
9000.000 3.09758
9005.000 3.01486
9010.000 2.95236
9015.000 2.92102
9020.000 2.97352
9025.000 3.14077
9030.000 3.29689
9035.000 3.44539
9040.000 3.55780
9045.000 3.62033
9050.000 3.69619
9055.000 3.69702
9060.000 3.69167
9065.000 3.65154
9070.000 3.62795
9075.000 3.59978
9080.000 3.58139
9085.000 3.56994
9090.000 3.54149
9095.000 3.56153
9100.000 3.61718
9105.000 3.61481
9110.000 3.67123
9115.000 3.71308
9120.000 3.67285
9125.000 3.70161
9130.000 3.61888
9135.000 3.55044
9140.000 3.53948
9145.000 3.56112
9150.000 3.52107
9155.000 3.41123
9160.000 3.45679
9165.000 3.52479
9170.000 3.55979
9175.000 3.47409
9180.000 3.49589
9185.000 3.47964
9190.000 3.38454
9195.000 3.30033
9200.000 3.22209
9205.000 3.15623
9210.000 3.02379
9215.000 2.91541
9220.000 2.83325
9225.000 2.73339
9230.000 2.68556
9235.000 2.76118
9240.000 2.87109
9245.000 2.96798
9250.000 3.08013
9255.000 3.17304
9260.000 3.21293
9265.000 3.29777
9270.000 3.44211
9275.000 3.51458
9280.000 3.49759
9285.000 3.51033
9290.000 3.49802
9295.000 3.42072
9300.000 3.33154
9305.000 3.26678
9310.000 3.19666
9315.000 3.10796
9320.000 3.04904
9325.000 3.04773
9330.000 3.11257
9335.000 3.10503
9340.000 3.08430
9345.000 3.00084
9350.000 3.19720
9355.000 3.13593
9360.000 3.15860
9365.000 3.29874
9370.000 3.20176
9375.000 3.30589
9380.000 3.29666
9385.000 3.35715
9390.000 3.50832
9395.000 3.57241
9400.000 3.50033
9405.000 3.41411
9410.000 3.35862
9415.000 3.27287
9420.000 3.21171
9425.000 3.13257
9430.000 2.96605
9435.000 3.07410
9440.000 2.92318
9445.000 2.97830
9450.000 3.16628
9455.000 3.11711
9460.000 3.05588
9465.000 3.11935
9470.000 3.14684
9475.000 3.11620
9480.000 3.01620
9485.000 2.99480
9490.000 3.07696
9495.000 3.01103
9500.000 2.88268
9505.000 2.89577
9510.000 2.95359
9515.000 2.88556
9520.000 2.64512
9525.000 2.53239
9530.000 2.49627
9535.000 2.52117
9540.000 2.42864
9545.000 2.31950
9550.000 2.36762
9555.000 2.47173
9560.000 2.51868
9565.000 2.67434
9570.000 2.76303
9575.000 2.88313
9580.000 2.94516
9585.000 2.94525
9590.000 2.95552
9595.000 2.86229
9600.000 2.99641
9605.000 2.97529
9610.000 2.97622
9615.000 2.98359
9620.000 2.92415
9625.000 2.93677
9630.000 2.98695
9635.000 3.00664
9640.000 3.00589
9645.000 2.98294
9650.000 3.01477
9655.000 3.02288
9660.000 2.96498
9665.000 2.95514
9670.000 2.97166
9675.000 3.04047
9680.000 2.99227
9685.000 3.03416
9690.000 3.00975
9695.000 2.97971
9700.000 2.96512
9705.000 2.94805
9710.000 2.97746
9715.000 2.99741
9720.000 2.95930
9725.000 2.91377
9730.000 2.85392
9735.000 2.87543
9740.000 2.85921
9745.000 2.88605
9750.000 2.88605
9755.000 2.94966
9760.000 2.96819
9765.000 2.92475
9770.000 2.97127
9775.000 2.97408
9780.000 2.92015
9785.000 2.92562
9790.000 2.89533
9795.000 2.90951
9800.000 2.92509
9805.000 2.98882
9810.000 2.97986
9815.000 2.90404
9820.000 2.89864
9825.000 2.88941
9830.000 2.92943
9835.000 2.84264
9840.000 2.94292
9845.000 2.95522
9850.000 2.90602
9855.000 2.87421
9860.000 2.86847
9865.000 2.86414
9870.000 2.91240
9875.000 2.92200
9880.000 2.85943
9885.000 2.81526
9890.000 2.80189
9895.000 2.79238
9900.000 2.81100
9905.000 2.72731
9910.000 2.73488
9915.000 2.79862
9920.000 2.76884
9925.000 2.80664
9930.000 2.82003
9935.000 2.81132
9940.000 2.80805
9945.000 2.71052
9950.000 2.65062
9955.000 2.60352
9960.000 2.64578
9965.000 2.60148
9970.000 2.63827
9975.000 2.66367
9980.000 2.62289
9985.000 2.68811
9990.000 2.56911
9995.000 2.56282
10000.000 2.51223
10005.000 2.49357
10010.000 2.39119
10015.000 2.33640
10020.000 2.23878
10025.000 2.26497
10030.000 2.17650
10035.000 2.18747
10040.000 2.09221
10045.000 2.03330
10050.000 2.04878
10055.000 2.16322
10060.000 2.11419
10065.000 2.21125
10070.000 2.31334
10075.000 2.37139
10080.000 2.38655
10085.000 2.40494
10090.000 2.46198
10095.000 2.44885
10100.000 2.48395
10105.000 2.55034
10110.000 2.53924
10115.000 2.52396
10120.000 2.52643
10125.000 2.48367
10130.000 2.53148
10135.000 2.45589
10140.000 2.50254
10145.000 2.51339
10150.000 2.53000
10155.000 2.54262
10160.000 2.54148
10165.000 2.52043
10170.000 2.48776
10175.000 2.45534
10180.000 2.43507
10185.000 2.43535
10190.000 2.45083
10195.000 2.47271
10200.000 2.49217
10205.000 2.50216
10210.000 2.50262
10215.000 2.49528
10220.000 2.48185
10225.000 2.46467
10230.000 2.44858
10235.000 2.43906
10240.000 2.44161
10245.000 2.45907
10250.000 2.48374
10255.000 2.50531
10260.000 2.51346
10265.000 2.50115
10270.000 2.47437
10275.000 2.44239
10280.000 2.41449
10285.000 2.39756
10290.000 2.38901
10295.000 2.38386
10300.000 2.37716
10305.000 2.36548
10310.000 2.35169
10315.000 2.34017
10320.000 2.33535
10325.000 2.33958
10330.000 2.34719
10335.000 2.35044
10340.000 2.34162
10345.000 2.31639
10350.000 2.28388
10355.000 2.25661
10360.000 2.24709
10365.000 2.26304
10370.000 2.29287
10375.000 2.32023
10380.000 2.32875
10385.000 2.30736
10390.000 2.26618
10395.000 2.22060
10400.000 2.18605
10405.000 2.17400
10410.000 2.18023
10415.000 2.19662
10420.000 2.21503
10425.000 2.22863
10430.000 2.23591
10435.000 2.23667
10440.000 2.23070
10445.000 2.21853
10450.000 2.20375
10455.000 2.19063
10460.000 2.18349
10465.000 2.18509
10470.000 2.19204
10475.000 2.19941
10480.000 2.20226
10485.000 2.19717
10490.000 2.18665
10495.000 2.17467
10500.000 2.16525
10505.000 2.20236
10510.000 2.20181
10515.000 2.20423
10520.000 2.20946
10525.000 2.21673
10530.000 2.22296
10535.000 2.22444
10540.000 2.21749
10545.000 2.20024
10550.000 2.17817
10555.000 2.15855
10560.000 2.14870
10565.000 2.15337
10570.000 2.16737
10575.000 2.18302
10580.000 2.19259
10585.000 2.19039
10590.000 2.17880
10595.000 2.16223
10600.000 2.14507
10605.000 2.13082
10610.000 2.11942
10615.000 2.10993
10620.000 2.10140
10625.000 2.15349
10630.000 2.14961
10635.000 2.14574
10640.000 2.14190
10645.000 2.13809
10650.000 2.13435
10655.000 2.13065
10660.000 2.12701
10665.000 2.12345
10670.000 2.11998
10675.000 2.11661
10680.000 2.11332
10685.000 2.11015
10690.000 2.10710
10695.000 2.10418
10700.000 2.10138
10705.000 2.09873
10710.000 2.09619
10715.000 2.09373
10720.000 2.09131
10725.000 2.08888
10730.000 2.08641
10735.000 2.08390
10740.000 2.08127
10745.000 2.07850
10750.000 2.07554
10755.000 2.07238
10760.000 2.06898
10765.000 2.06528
10770.000 2.06127
10775.000 2.05690
10780.000 2.05214
10785.000 2.04695
10790.000 2.04130
10795.000 2.03516
10800.000 2.02846
10805.000 2.02123
10810.000 2.01349
10815.000 2.00532
10820.000 1.99677
10825.000 1.98792
10830.000 1.97884
10835.000 1.96958
10840.000 1.96023
10845.000 1.95085
10850.000 1.94150
10855.000 1.93226
10860.000 1.92318
10865.000 1.91433
10870.000 1.90580
10875.000 1.89762
10880.000 1.88990
10885.000 1.88268
10890.000 1.87602
10895.000 1.87002
10900.000 1.86472
10905.000 1.86016
10910.000 1.85634
10915.000 1.85320
10920.000 1.85068
10925.000 1.84876
10930.000 1.84737
10935.000 1.84645
10940.000 1.84599
10945.000 1.84592
10950.000 1.84618
10955.000 1.84675
10960.000 1.84756
10965.000 1.84859
10970.000 1.84976
10975.000 1.85104
10980.000 1.85237
10985.000 1.85371
10990.000 1.85502
10995.000 1.85624
11000.000 1.85734
11005.000 1.85825
11010.000 1.85898
11015.000 1.85956
11020.000 1.85995
11025.000 1.86016
11030.000 1.86023
11035.000 1.86012
11040.000 1.85985
11045.000 1.85943
11050.000 1.85885
11055.000 1.85812
11060.000 1.85725
11065.000 1.85624
11070.000 1.85507
11075.000 1.85376
11080.000 1.85233
11085.000 1.85075
11090.000 1.84905
11095.000 1.84722
11100.000 1.84527
11105.000 1.84320
11110.000 1.84101
11115.000 1.83872
11120.000 1.83633
11125.000 1.83384
11130.000 1.83128
11135.000 1.82863
11140.000 1.82593
11145.000 1.82316
11150.000 1.82034
11155.000 1.81748
11160.000 1.81459
11165.000 1.81166
11170.000 1.80871
11175.000 1.80574
11180.000 1.80277
11185.000 1.79982
11190.000 1.79687
11195.000 1.79393
11200.000 1.79102
11205.000 1.78815
11210.000 1.78529
11215.000 1.78248
11220.000 1.77970
11225.000 1.77693
11230.000 1.77418
11235.000 1.77147
11240.000 1.76877
11245.000 1.76608
11250.000 1.76343
11255.000 1.76077
11260.000 1.75812
11265.000 1.75549
11270.000 1.75287
11275.000 1.75024
11280.000 1.74762
11285.000 1.74500
11290.000 1.74237
11295.000 1.73976
11300.000 1.73713
11305.000 1.73449
11310.000 1.73184
11315.000 1.72920
11320.000 1.72654
11325.000 1.72388
11330.000 1.72121
11335.000 1.71855
11340.000 1.71588
11345.000 1.71321
11350.000 1.71055
11355.000 1.70788
11360.000 1.70522
11365.000 1.70255
11370.000 1.69989
11375.000 1.69723
11380.000 1.69458
11385.000 1.69193
11390.000 1.68930
11395.000 1.68666
11400.000 1.68404
11405.000 1.68143
11410.000 1.67881
11415.000 1.67622
11420.000 1.67362
11425.000 1.67105
11430.000 1.66848
11435.000 1.66590
11440.000 1.66334
11445.000 1.66078
11450.000 1.65824
11455.000 1.65571
11460.000 1.65316
11465.000 1.65064
11470.000 1.64811
11475.000 1.64560
11480.000 1.64309
11485.000 1.64059
11490.000 1.63809
11495.000 1.63558
11500.000 1.63309
11505.000 1.63061
11510.000 1.62812
11515.000 1.62564
11520.000 1.62317
11525.000 1.62069
11530.000 1.61822
11535.000 1.61576
11540.000 1.61329
11545.000 1.61083
11550.000 1.60839
11555.000 1.60594
11560.000 1.60349
11565.000 1.60105
11570.000 1.59861
11575.000 1.59618
11580.000 1.59375
11585.000 1.59133
11590.000 1.58891
11595.000 1.58649
11600.000 1.58407
11605.000 1.58167
11610.000 1.57926
11615.000 1.57686
11620.000 1.57447
11625.000 1.57206
11630.000 1.56969
11635.000 1.56730
11640.000 1.56492
11645.000 1.56253
11650.000 1.56017
11655.000 1.55779
11660.000 1.55543
11665.000 1.55306
11670.000 1.55070
11675.000 1.54835
11680.000 1.54601
11685.000 1.54366
11690.000 1.54131
11695.000 1.53897
11700.000 1.53664
11705.000 1.53431
11710.000 1.53199
11715.000 1.52966
11720.000 1.52734
11725.000 1.52502
11730.000 1.52272
11735.000 1.52041
11740.000 1.51812
11745.000 1.51581
11750.000 1.51354
11755.000 1.51124
11760.000 1.50896
11765.000 1.50669
11770.000 1.50442
11775.000 1.50216
11780.000 1.49989
11785.000 1.49764
11790.000 1.49541
11795.000 1.49316
11800.000 1.49092
11805.000 1.48870
11810.000 1.48648
11815.000 1.48426
11820.000 1.48205
11825.000 1.47986
11830.000 1.47765
11835.000 1.47545
11840.000 1.47327
11845.000 1.47108
11850.000 1.46891
11855.000 1.46674
11860.000 1.46457
11865.000 1.46240
11870.000 1.46024
11875.000 1.45809
11880.000 1.45594
11885.000 1.45378
11890.000 1.45163
11895.000 1.44949
11900.000 1.44736
11905.000 1.44522
11910.000 1.44308
11915.000 1.44096
11920.000 1.43882
11925.000 1.43670
11930.000 1.43459
11935.000 1.43246
11940.000 1.43034
11945.000 1.42823
11950.000 1.42612
11955.000 1.42401
11960.000 1.42190
11965.000 1.41981
11970.000 1.41770
11975.000 1.41560
11980.000 1.41351
11985.000 1.41141
11990.000 1.40933
11995.000 1.40724
12000.000 1.40516
12005.000 1.40306
12010.000 1.40098
12015.000 1.39890
12020.000 1.39683
12025.000 1.39475
12030.000 1.39268
12035.000 1.39061
12040.000 1.38855
12045.000 1.38649
12050.000 1.38443
12055.000 1.38237
12060.000 1.38033
12065.000 1.37828
12070.000 1.37624
12075.000 1.37422
12080.000 1.37218
12085.000 1.37015
12090.000 1.36814
12095.000 1.36613
12100.000 1.36412
12105.000 1.36212
12110.000 1.36013
12115.000 1.35813
12120.000 1.35615
12125.000 1.35416
12130.000 1.35220
12135.000 1.35023
12140.000 1.34826
12145.000 1.34630
12150.000 1.34435
12155.000 1.34239
12160.000 1.34045
12165.000 1.33851
12170.000 1.33657
12175.000 1.33465
12180.000 1.33271
12185.000 1.33078
12190.000 1.32885
12195.000 1.32694
12200.000 1.32501
12205.000 1.32310
12210.000 1.32119
12215.000 1.31928
12220.000 1.31738
12225.000 1.31546
12230.000 1.31357
12235.000 1.31167
12240.000 1.30977
12245.000 1.30787
12250.000 1.30597
12255.000 1.30407
12260.000 1.30219
12265.000 1.30029
12270.000 1.29841
12275.000 1.29651
12280.000 1.29462
12285.000 1.29274
12290.000 1.29086
12295.000 1.28897
12300.000 1.28709
12305.000 1.28520
12310.000 1.28332
12315.000 1.28145
12320.000 1.27956
12325.000 1.27769
12330.000 1.27582
12335.000 1.27395
12340.000 1.27210
12345.000 1.27025
12350.000 1.26840
12355.000 1.26657
12360.000 1.26474
12365.000 1.26293
12370.000 1.26111
12375.000 1.25931
12380.000 1.25753
12385.000 1.25576
12390.000 1.25400
12395.000 1.25225
12400.000 1.25052
12405.000 1.24881
12410.000 1.24711
12415.000 1.24542
12420.000 1.24373
12425.000 1.24204
12430.000 1.24036
12435.000 1.23867
12440.000 1.23698
12445.000 1.23527
12450.000 1.23355
12455.000 1.23182
12460.000 1.23006
12465.000 1.22828
12470.000 1.22648
12475.000 1.22465
12480.000 1.22278
12485.000 1.22088
12490.000 1.21894
12495.000 1.21696
12500.000 1.21493
12505.000 1.21286
12510.000 1.21076
12515.000 1.20862
12520.000 1.20648
12525.000 1.20433
12530.000 1.20219
12535.000 1.20008
12540.000 1.19800
12545.000 1.19598
12550.000 1.19401
12555.000 1.19209
12560.000 1.19028
12565.000 1.18855
12570.000 1.18693
12575.000 1.18543
12580.000 1.18406
12585.000 1.18283
12590.000 1.18176
12595.000 1.18084
12600.000 1.18011
12605.000 1.17955
12610.000 1.17914
12615.000 1.17882
12620.000 1.17855
12625.000 1.17827
12630.000 1.17795
12635.000 1.17754
12640.000 1.17698
12645.000 1.17622
12650.000 1.17523
12655.000 1.17395
12660.000 1.17235
12665.000 1.17037
12670.000 1.16795
12675.000 1.16507
12680.000 1.16165
12685.000 1.15767
12690.000 1.15307
12695.000 1.14780
12700.000 1.14182
12705.000 1.13511
12710.000 1.12773
12715.000 1.11980
12720.000 1.11139
12725.000 1.10261
12730.000 1.09357
12735.000 1.08436
12740.000 1.07507
12745.000 1.06580
12750.000 1.05666
12755.000 1.04773
12760.000 1.03912
12765.000 1.03094
12770.000 1.02326
12775.000 1.01620
12780.000 1.00984
12785.000 1.00429
12790.000 0.99965
12795.000 0.99602
12800.000 0.99349
12805.000 0.99211
12810.000 0.99186
12815.000 0.99260
12820.000 0.99428
12825.000 0.99677
12830.000 1.00000
12835.000 1.00387
12840.000 1.00827
12845.000 1.01313
12850.000 1.01834
12855.000 1.02382
12860.000 1.02946
12865.000 1.03518
12870.000 1.04089
12875.000 1.04649
12880.000 1.05188
12885.000 1.05695
12890.000 1.06165
12895.000 1.06585
12900.000 1.06948
12905.000 1.07246
12910.000 1.07480
12915.000 1.07654
12920.000 1.07774
12925.000 1.07843
12930.000 1.07862
12935.000 1.07841
12940.000 1.07779
12945.000 1.07682
12950.000 1.07554
12955.000 1.07400
12960.000 1.07223
12965.000 1.07026
12970.000 1.06815
12975.000 1.06593
12980.000 1.06363
12985.000 1.06131
12990.000 1.05899
12995.000 1.05674
13000.000 1.05458
13005.000 1.05254
13010.000 1.05063
13015.000 1.04883
13020.000 1.04714
13025.000 1.04555
13030.000 1.04406
13035.000 1.04264
13040.000 1.04129
13045.000 1.04001
13050.000 1.03880
13055.000 1.03762
13060.000 1.03648
13065.000 1.03538
13070.000 1.03430
13075.000 1.03323
13080.000 1.03216
13085.000 1.03109
13090.000 1.03001
13095.000 1.02891
13100.000 1.02779
13105.000 1.02662
13110.000 1.02543
13115.000 1.02419
13120.000 1.02292
13125.000 1.02163
13130.000 1.02032
13135.000 1.01897
13140.000 1.01762
13145.000 1.01624
13150.000 1.01485
13155.000 1.01344
13160.000 1.01202
13165.000 1.01060
13170.000 1.00917
13175.000 1.00773
13180.000 1.00630
13185.000 1.00488
13190.000 1.00345
13195.000 1.00203
13200.000 1.00062
13205.000 0.99923
13210.000 0.99785
13215.000 0.99647
13220.000 0.99511
13225.000 0.99376
13230.000 0.99241
13235.000 0.99107
13240.000 0.98975
13245.000 0.98843
13250.000 0.98710
13255.000 0.98580
13260.000 0.98449
13265.000 0.98320
13270.000 0.98189
13275.000 0.98059
13280.000 0.97931
13285.000 0.97802
13290.000 0.97673
13295.000 0.97543
13300.000 0.97415
13305.000 0.97286
13310.000 0.97157
13315.000 0.97027
13320.000 0.96898
13325.000 0.96768
13330.000 0.96639
13335.000 0.96510
13340.000 0.96382
13345.000 0.96252
13350.000 0.96123
13355.000 0.95994
13360.000 0.95866
13365.000 0.95736
13370.000 0.95608
13375.000 0.95479
13380.000 0.95351
13385.000 0.95223
13390.000 0.95096
13395.000 0.94968
13400.000 0.94842
13405.000 0.94715
13410.000 0.94589
13415.000 0.94462
13420.000 0.94337
13425.000 0.94210
13430.000 0.94085
13435.000 0.93962
13440.000 0.93836
13445.000 0.93713
13450.000 0.93587
13455.000 0.93464
13460.000 0.93340
13465.000 0.93218
13470.000 0.93094
13475.000 0.92970
13480.000 0.92848
13485.000 0.92725
13490.000 0.92603
13495.000 0.92481
13500.000 0.92360
13505.000 0.92237
13510.000 0.92115
13515.000 0.91994
13520.000 0.91873
13525.000 0.91752
13530.000 0.91631
13535.000 0.91510
13540.000 0.91390
13545.000 0.91269
13550.000 0.91149
13555.000 0.91028
13560.000 0.90909
13565.000 0.90788
13570.000 0.90668
13575.000 0.90549
13580.000 0.90429
13585.000 0.90310
13590.000 0.90190
13595.000 0.90070
13600.000 0.89951
13605.000 0.89831
13610.000 0.89713
13615.000 0.89594
13620.000 0.89476
13625.000 0.89356
13630.000 0.89238
13635.000 0.89120
13640.000 0.89002
13645.000 0.88884
13650.000 0.88765
13655.000 0.88647
13660.000 0.88531
13665.000 0.88414
13670.000 0.88297
13675.000 0.88180
13680.000 0.88064
13685.000 0.87948
13690.000 0.87833
13695.000 0.87718
13700.000 0.87602
13705.000 0.87489
13710.000 0.87373
13715.000 0.87259
13720.000 0.87147
13725.000 0.87033
13730.000 0.86920
13735.000 0.86808
13740.000 0.86695
13745.000 0.86583
13750.000 0.86472
13755.000 0.86359
13760.000 0.86248
13765.000 0.86136
13770.000 0.86025
13775.000 0.85914
13780.000 0.85802
13785.000 0.85691
13790.000 0.85582
13795.000 0.85471
13800.000 0.85360
13805.000 0.85248
13810.000 0.85139
13815.000 0.85028
13820.000 0.84917
13825.000 0.84807
13830.000 0.84696
13835.000 0.84586
13840.000 0.84476
13845.000 0.84365
13850.000 0.84256
13855.000 0.84146
13860.000 0.84036
13865.000 0.83927
13870.000 0.83817
13875.000 0.83709
13880.000 0.83599
13885.000 0.83491
13890.000 0.83382
13895.000 0.83273
13900.000 0.83166
13905.000 0.83057
13910.000 0.82949
13915.000 0.82842
13920.000 0.82735
13925.000 0.82629
13930.000 0.82522
13935.000 0.82415
13940.000 0.82308
13945.000 0.82202
13950.000 0.82097
13955.000 0.81992
13960.000 0.81886
13965.000 0.81781
13970.000 0.81675
13975.000 0.81571
13980.000 0.81467
13985.000 0.81362
13990.000 0.81257
13995.000 0.81155
14000.000 0.81051
14005.000 0.80947
14010.000 0.80844
14015.000 0.80740
14020.000 0.80637
14025.000 0.80535
14030.000 0.80432
14035.000 0.80329
14040.000 0.80228
14045.000 0.80125
14050.000 0.80024
14055.000 0.79922
14060.000 0.79820
14065.000 0.79719
14070.000 0.79616
14075.000 0.79515
14080.000 0.79414
14085.000 0.79313
14090.000 0.79211
14095.000 0.79112
14100.000 0.79010
14105.000 0.78909
14110.000 0.78808
14115.000 0.78708
14120.000 0.78607
14125.000 0.78507
14130.000 0.78406
14135.000 0.78306
14140.000 0.78206
14145.000 0.78106
14150.000 0.78006
14155.000 0.77906
14160.000 0.77807
14165.000 0.77707
14170.000 0.77608
14175.000 0.77508
14180.000 0.77410
14185.000 0.77312
14190.000 0.77213
14195.000 0.77116
14200.000 0.77018
14205.000 0.76921
14210.000 0.76824
14215.000 0.76727
14220.000 0.76629
14225.000 0.76532
14230.000 0.76437
14235.000 0.76341
14240.000 0.76244
14245.000 0.76149
14250.000 0.76053
14255.000 0.75959
14260.000 0.75863
14265.000 0.75767
14270.000 0.75673
14275.000 0.75578
14280.000 0.75483
14285.000 0.75389
14290.000 0.75295
14295.000 0.75199
14300.000 0.75105
14305.000 0.74938
14310.000 0.74974
14315.000 0.75025
14320.000 0.75060
14325.000 0.75053
14330.000 0.74969
14335.000 0.74813
14340.000 0.74599
14345.000 0.74326
14350.000 0.73973
14355.000 0.73524
14360.000 0.73013
14365.000 0.72588
14370.000 0.72457
14375.000 0.72646
14380.000 0.72959
14385.000 0.73224
14390.000 0.73381
14395.000 0.73425
14400.000 0.73329
14405.000 0.73069
14410.000 0.72665
14415.000 0.72241
14420.000 0.71938
14425.000 0.71827
14430.000 0.71872
14435.000 0.72068
14440.000 0.72332
14445.000 0.72609
14450.000 0.72762
14455.000 0.72648
14460.000 0.72294
14465.000 0.71904
14470.000 0.71612
14475.000 0.71411
14480.000 0.71244
14485.000 0.71061
14490.000 0.70836
14495.000 0.70580
14500.000 0.69349
14505.000 0.69458
14510.000 0.69991
14515.000 0.70594
14520.000 0.70978
14525.000 0.71094
14530.000 0.70983
14535.000 0.70681
14540.000 0.70247
14545.000 0.69804
14550.000 0.69579
14555.000 0.69728
14560.000 0.70238
14565.000 0.70857
14570.000 0.71294
14575.000 0.71376
14580.000 0.71052
14585.000 0.70351
14590.000 0.69383
14595.000 0.68352
14600.000 0.67523
14605.000 0.67116
14610.000 0.67170
14615.000 0.67528
14620.000 0.67961
14625.000 0.68310
14630.000 0.68531
14635.000 0.68676
14640.000 0.68832
14645.000 0.69075
14650.000 0.69410
14655.000 0.69747
14660.000 0.69933
14665.000 0.69804
14670.000 0.69421
14675.000 0.68885
14680.000 0.68352
14685.000 0.67932
14690.000 0.67682
14695.000 0.67627
14700.000 0.67757
14705.000 0.68018
14710.000 0.68269
14715.000 0.68342
14720.000 0.68162
14725.000 0.67790
14730.000 0.67307
14735.000 0.66759
14740.000 0.66160
14745.000 0.65544
14750.000 0.65008
14755.000 0.64731
14760.000 0.64921
14765.000 0.65648
14770.000 0.66677
14775.000 0.67655
14780.000 0.68085
14785.000 0.67956
14790.000 0.67248
14795.000 0.66147
14800.000 0.64980
14805.000 0.64186
14810.000 0.64103
14815.000 0.64728
14820.000 0.65704
14825.000 0.66562
14830.000 0.66962
14835.000 0.66763
14840.000 0.66025
14845.000 0.64973
14850.000 0.63996
14855.000 0.63536
14860.000 0.63875
14865.000 0.64908
14870.000 0.66178
14875.000 0.67136
14880.000 0.67406
14885.000 0.66893
14890.000 0.65762
14895.000 0.64366
14900.000 0.63149
14905.000 0.62411
14910.000 0.62284
14915.000 0.62656
14920.000 0.63257
14925.000 0.63789
14930.000 0.64044
14935.000 0.63982
14940.000 0.63723
14945.000 0.63495
14950.000 0.63502
14955.000 0.63827
14960.000 0.64384
14965.000 0.64963
14970.000 0.65312
14975.000 0.65237
14980.000 0.64697
14985.000 0.63841
14990.000 0.62951
14995.000 0.62338
15000.000 0.62134
15005.000 0.62889
15010.000 0.62957
15015.000 0.62120
15020.000 0.60671
15025.000 0.59150
15030.000 0.57949
15035.000 0.57433
15040.000 0.57721
15045.000 0.58670
15050.000 0.59904
15055.000 0.61106
15060.000 0.61602
15065.000 0.60957
15070.000 0.60546
15075.000 0.60400
15080.000 0.60517
15085.000 0.60818
15090.000 0.61185
15095.000 0.61481
15100.000 0.61602
15105.000 0.61514
15110.000 0.61252
15115.000 0.60919
15120.000 0.60633
15125.000 0.60489
15130.000 0.60518
15135.000 0.60685
15140.000 0.60885
15145.000 0.60996
15150.000 0.60941
15155.000 0.60701
15160.000 0.60334
15165.000 0.59941
15170.000 0.59626
15175.000 0.59442
15180.000 0.59369
15185.000 0.59327
15190.000 0.59226
15195.000 0.59002
15200.000 0.58667
15205.000 0.58302
15210.000 0.58028
15215.000 0.57956
15220.000 0.58129
15225.000 0.58496
15230.000 0.58916
15235.000 0.59200
15240.000 0.59185
15245.000 0.58811
15250.000 0.58160
15255.000 0.57447
15260.000 0.56879
15265.000 0.56727
15270.000 0.57080
15275.000 0.57808
15280.000 0.58752
15285.000 0.59611
15290.000 0.60106
15295.000 0.60069
15300.000 0.59511
15305.000 0.58607
15310.000 0.57618
15315.000 0.56786
15320.000 0.56261
15325.000 0.56069
15330.000 0.56119
15335.000 0.56250
15340.000 0.56309
15345.000 0.56212
15350.000 0.55986
15355.000 0.55755
15360.000 0.55679
15365.000 0.55884
15370.000 0.56409
15375.000 0.57177
15380.000 0.58002
15385.000 0.58651
15390.000 0.58942
15395.000 0.58622
15400.000 0.57895
15405.000 0.56853
15410.000 0.55727
15415.000 0.54714
15420.000 0.53961
15425.000 0.53522
15430.000 0.53384
15435.000 0.53467
15440.000 0.53668
15445.000 0.53903
15450.000 0.54131
15455.000 0.54353
15460.000 0.54596
15465.000 0.54880
15470.000 0.55209
15475.000 0.55551
15480.000 0.55861
15485.000 0.56091
15490.000 0.56221
15495.000 0.56256
15500.000 0.56232
15505.000 0.56187
15510.000 0.56135
15515.000 0.56057
15520.000 0.55889
15525.000 0.55530
15530.000 0.54962
15535.000 0.54159
15540.000 0.53203
15545.000 0.52239
15550.000 0.51444
15555.000 0.50964
15560.000 0.50882
15565.000 0.51196
15570.000 0.51825
15575.000 0.52644
15580.000 0.53514
15585.000 0.54305
15590.000 0.54939
15595.000 0.55396
15600.000 0.55709
15605.000 0.55932
15610.000 0.56111
15615.000 0.56254
15620.000 0.56334
15625.000 0.56296
15630.000 0.56091
15635.000 0.55704
15640.000 0.55174
15645.000 0.54572
15650.000 0.53980
15655.000 0.53487
15660.000 0.53085
15665.000 0.52751
15670.000 0.52408
15675.000 0.51967
15680.000 0.51327
15685.000 0.50396
15690.000 0.49284
15695.000 0.48268
15700.000 0.47530
15705.000 0.47240
15710.000 0.47498
15715.000 0.48291
15720.000 0.49530
15725.000 0.51017
15730.000 0.52407
15735.000 0.53539
15740.000 0.54342
15745.000 0.54759
15750.000 0.54826
15755.000 0.54627
15760.000 0.54277
15765.000 0.53882
15770.000 0.53521
15775.000 0.53238
15780.000 0.53034
15785.000 0.52910
15790.000 0.52732
15795.000 0.52587
15800.000 0.52716
15805.000 0.53033
15810.000 0.53495
15815.000 0.53997
15820.000 0.54388
15825.000 0.54504
15830.000 0.54218
15835.000 0.53490
15840.000 0.52386
15845.000 0.51040
15850.000 0.49705
15855.000 0.48558
15860.000 0.47519
15865.000 0.46703
15870.000 0.46294
15875.000 0.46308
15880.000 0.46703
15885.000 0.47360
15890.000 0.48122
15895.000 0.48839
15900.000 0.49407
15905.000 0.49790
15910.000 0.49971
15915.000 0.49956
15920.000 0.49985
15925.000 0.50289
15930.000 0.50819
15935.000 0.51564
15940.000 0.52403
15945.000 0.53184
15950.000 0.53760
15955.000 0.54023
15960.000 0.53942
15965.000 0.53561
15970.000 0.52985
15975.000 0.52341
15980.000 0.51759
15985.000 0.51331
15990.000 0.51106
15995.000 0.51081
16000.000 0.51213
16005.000 0.51431
16010.000 0.51654
16015.000 0.51819
16020.000 0.51894
16025.000 0.51881
16030.000 0.51811
16035.000 0.51725
16040.000 0.51656
16045.000 0.51615
16050.000 0.51571
16055.000 0.51494
16060.000 0.51264
16065.000 0.50840
16070.000 0.50181
16075.000 0.49153
16080.000 0.47806
16085.000 0.46328
16090.000 0.44900
16095.000 0.43732
16100.000 0.42995
16105.000 0.42811
16110.000 0.43221
16115.000 0.44096
16120.000 0.45243
16125.000 0.46453
16130.000 0.47410
16135.000 0.48147
16140.000 0.48780
16145.000 0.49267
16150.000 0.49634
16155.000 0.49921
16160.000 0.50165
16165.000 0.50393
16170.000 0.50608
16175.000 0.50798
16180.000 0.50939
16185.000 0.51003
16190.000 0.50970
16195.000 0.50846
16200.000 0.50619
16205.000 0.50326
16210.000 0.50016
16215.000 0.49728
16220.000 0.49503
16225.000 0.49366
16230.000 0.49320
16235.000 0.49344
16240.000 0.49403
16245.000 0.49458
16250.000 0.49471
16255.000 0.49421
16260.000 0.49305
16265.000 0.49136
16270.000 0.48949
16275.000 0.48784
16280.000 0.48683
16285.000 0.48669
16290.000 0.48744
16295.000 0.48879
16300.000 0.49029
16305.000 0.49141
16310.000 0.49163
16315.000 0.49063
16320.000 0.48835
16325.000 0.48511
16330.000 0.48151
16335.000 0.47824
16340.000 0.47585
16345.000 0.47538
16350.000 0.47647
16355.000 0.47626
16360.000 0.47492
16365.000 0.47191
16370.000 0.46636
16375.000 0.45790
16380.000 0.44677
16385.000 0.43377
16390.000 0.42036
16395.000 0.40825
16400.000 0.39923
16405.000 0.39473
16410.000 0.39552
16415.000 0.40149
16420.000 0.41162
16425.000 0.42422
16430.000 0.43719
16435.000 0.44850
16440.000 0.45660
16445.000 0.46079
16450.000 0.46128
16455.000 0.45932
16460.000 0.45667
16465.000 0.45474
16470.000 0.45442
16475.000 0.45610
16480.000 0.45955
16485.000 0.46406
16490.000 0.46872
16495.000 0.47259
16500.000 0.47512
16505.000 0.47609
16510.000 0.47571
16515.000 0.47446
16520.000 0.47285
16525.000 0.47133
16530.000 0.47005
16535.000 0.46889
16540.000 0.46748
16545.000 0.46544
16550.000 0.46247
16555.000 0.45858
16560.000 0.45408
16565.000 0.44951
16570.000 0.44561
16575.000 0.44305
16580.000 0.44231
16585.000 0.44348
16590.000 0.44626
16595.000 0.44999
16600.000 0.45384
16605.000 0.45706
16610.000 0.45909
16615.000 0.45969
16620.000 0.45897
16625.000 0.45726
16630.000 0.45502
16635.000 0.45276
16640.000 0.45089
16645.000 0.44952
16650.000 0.44868
16655.000 0.44814
16660.000 0.44771
16665.000 0.44719
16670.000 0.44654
16675.000 0.44585
16680.000 0.44525
16685.000 0.44487
16690.000 0.44478
16695.000 0.44494
16700.000 0.44519
16705.000 0.44535
16710.000 0.44523
16715.000 0.44474
16720.000 0.44414
16725.000 0.44300
16730.000 0.44165
16735.000 0.44107
16740.000 0.44120
16745.000 0.44155
16750.000 0.44169
16755.000 0.44087
16760.000 0.43829
16765.000 0.43332
16770.000 0.42569
16775.000 0.41562
16780.000 0.40383
16785.000 0.39153
16790.000 0.38032
16795.000 0.37142
16800.000 0.36598
16805.000 0.36457
16810.000 0.36709
16815.000 0.37281
16820.000 0.38060
16825.000 0.38917
16830.000 0.39738
16835.000 0.40444
16840.000 0.41005
16845.000 0.41428
16850.000 0.41797
16855.000 0.42119
16860.000 0.42358
16865.000 0.42562
16870.000 0.42795
16875.000 0.43012
16880.000 0.43172
16885.000 0.43244
16890.000 0.43207
16895.000 0.43079
16900.000 0.42889
16905.000 0.42690
16910.000 0.42531
16915.000 0.42446
16920.000 0.42452
16925.000 0.42532
16930.000 0.42654
16935.000 0.42761
16940.000 0.42813
16945.000 0.42788
16950.000 0.42680
16955.000 0.42515
16960.000 0.42339
16965.000 0.42203
16970.000 0.42144
16975.000 0.42183
16980.000 0.42309
16985.000 0.42483
16990.000 0.42653
16995.000 0.42759
17000.000 0.42757
17005.000 0.42629
17010.000 0.42390
17015.000 0.42078
17020.000 0.41749
17025.000 0.41461
17030.000 0.41255
17035.000 0.41155
17040.000 0.41151
17045.000 0.41212
17050.000 0.41289
17055.000 0.41335
17060.000 0.41317
17065.000 0.41227
17070.000 0.41078
17075.000 0.40909
17080.000 0.40773
17085.000 0.40697
17090.000 0.40732
17095.000 0.40895
17100.000 0.41126
17105.000 0.41397
17110.000 0.41646
17115.000 0.41816
17120.000 0.41868
17125.000 0.41788
17130.000 0.41591
17135.000 0.41316
17140.000 0.41008
17145.000 0.40715
17150.000 0.40476
17155.000 0.40309
17160.000 0.40212
17165.000 0.40168
17170.000 0.40144
17175.000 0.40115
17180.000 0.40059
17185.000 0.39974
17190.000 0.39873
17195.000 0.39779
17200.000 0.39718
17205.000 0.39715
17210.000 0.39783
17215.000 0.39916
17220.000 0.40094
17225.000 0.40276
17230.000 0.40423
17235.000 0.40492
17240.000 0.40458
17245.000 0.40330
17250.000 0.40105
17255.000 0.39818
17260.000 0.39528
17265.000 0.39260
17270.000 0.39043
17275.000 0.38932
17280.000 0.39060
17285.000 0.39158
17290.000 0.39031
17295.000 0.38929
17300.000 0.38810
17305.000 0.38651
17310.000 0.38430
17315.000 0.38118
17320.000 0.37695
17325.000 0.37145
17330.000 0.36471
17335.000 0.35695
17340.000 0.34855
17345.000 0.34014
17350.000 0.33244
17355.000 0.32622
17360.000 0.32223
17365.000 0.32099
17370.000 0.32282
17375.000 0.32767
17380.000 0.33514
17385.000 0.34449
17390.000 0.35467
17395.000 0.36470
17400.000 0.37321
17405.000 0.38036
17410.000 0.38436
17415.000 0.38213
17420.000 0.38105
17425.000 0.38018
17430.000 0.37877
17435.000 0.37783
17440.000 0.37766
17445.000 0.37856
17450.000 0.38048
17455.000 0.38308
17460.000 0.38586
17465.000 0.38818
17470.000 0.38946
17475.000 0.38931
17480.000 0.38761
17485.000 0.38460
17490.000 0.38071
17495.000 0.37654
17500.000 0.37257
17505.000 0.36928
17510.000 0.36692
17515.000 0.36558
17520.000 0.36523
17525.000 0.36567
17530.000 0.36665
17535.000 0.36789
17540.000 0.36911
17545.000 0.37014
17550.000 0.37086
17555.000 0.37124
17560.000 0.37135
17565.000 0.37128
17570.000 0.37110
17575.000 0.37087
17580.000 0.37056
17585.000 0.37017
17590.000 0.36966
17595.000 0.36899
17600.000 0.36814
17605.000 0.36714
17610.000 0.36605
17615.000 0.36492
17620.000 0.36384
17625.000 0.36288
17630.000 0.36212
17635.000 0.36160
17640.000 0.36136
17645.000 0.36142
17650.000 0.36174
17655.000 0.36231
17660.000 0.36304
17665.000 0.36387
17670.000 0.36468
17675.000 0.36536
17680.000 0.36578
17685.000 0.36581
17690.000 0.36536
17695.000 0.36439
17700.000 0.36288
17705.000 0.36094
17710.000 0.35873
17715.000 0.35648
17720.000 0.35452
17725.000 0.35311
17730.000 0.35248
17735.000 0.35273
17740.000 0.35373
17745.000 0.35533
17750.000 0.35727
17755.000 0.35897
17760.000 0.36014
17765.000 0.36049
17770.000 0.35986
17775.000 0.35834
17780.000 0.35615
17785.000 0.35371
17790.000 0.35149
17795.000 0.34992
17800.000 0.34924
17805.000 0.35173
17810.000 0.35211
17815.000 0.35274
17820.000 0.35343
17825.000 0.35395
17830.000 0.35414
17835.000 0.35383
17840.000 0.35297
17845.000 0.35162
17850.000 0.34997
17855.000 0.34830
17860.000 0.34692
17865.000 0.34604
17870.000 0.34571
17875.000 0.34587
17880.000 0.34633
17885.000 0.34689
17890.000 0.34736
17895.000 0.34760
17900.000 0.34747
17905.000 0.34692
17910.000 0.34598
17915.000 0.34473
17920.000 0.34327
17925.000 0.34194
17930.000 0.34103
17935.000 0.34066
17940.000 0.34085
17945.000 0.34140
17950.000 0.34208
17955.000 0.34266
17960.000 0.34298
17965.000 0.34296
17970.000 0.34255
17975.000 0.34176
17980.000 0.34065
17985.000 0.33930
17990.000 0.33788
17995.000 0.33659
18000.000 0.33574
18005.000 0.33559
18010.000 0.33623
18015.000 0.33751
18020.000 0.33910
18025.000 0.34064
18030.000 0.34185
18035.000 0.34265
18040.000 0.34297
18045.000 0.34283
18050.000 0.34227
18055.000 0.34131
18060.000 0.33999
18065.000 0.33839
18070.000 0.33660
18075.000 0.33476
18080.000 0.33297
18085.000 0.33128
18090.000 0.32972
18095.000 0.32835
18100.000 0.32529
18105.000 0.32344
18110.000 0.32143
18115.000 0.31928
18120.000 0.31704
18125.000 0.31472
18130.000 0.31234
18135.000 0.30995
18140.000 0.30756
18145.000 0.30521
18150.000 0.30291
18155.000 0.30068
18160.000 0.29858
18165.000 0.29659
18170.000 0.29476
18175.000 0.29313
18180.000 0.29171
18185.000 0.29053
18190.000 0.28960
18195.000 0.28897
18200.000 0.28866
18205.000 0.28868
18210.000 0.28900
18215.000 0.28962
18220.000 0.29050
18225.000 0.29160
18230.000 0.29291
18235.000 0.29438
18240.000 0.29602
18245.000 0.29776
18250.000 0.29960
18255.000 0.30149
18260.000 0.30343
18265.000 0.30535
18270.000 0.30727
18275.000 0.30912
18280.000 0.31091
18285.000 0.31258
18290.000 0.31413
18295.000 0.31551
18300.000 0.31670
18305.000 0.31767
18310.000 0.31845
18315.000 0.31902
18320.000 0.31942
18325.000 0.31966
18330.000 0.31974
18335.000 0.31968
18340.000 0.31950
18345.000 0.31921
18350.000 0.31883
18355.000 0.31835
18360.000 0.31780
18365.000 0.31719
18370.000 0.31655
18375.000 0.31587
18380.000 0.31517
18385.000 0.31448
18390.000 0.31378
18395.000 0.31312
18400.000 0.31248
18405.000 0.31189
18410.000 0.31136
18415.000 0.31087
18420.000 0.31040
18425.000 0.30999
18430.000 0.30961
18435.000 0.30926
18440.000 0.30894
18445.000 0.30864
18450.000 0.30838
18455.000 0.30812
18460.000 0.30790
18465.000 0.30769
18470.000 0.30748
18475.000 0.30728
18480.000 0.30710
18485.000 0.30691
18490.000 0.30673
18495.000 0.30653
18500.000 0.30635
18505.000 0.30616
18510.000 0.30594
18515.000 0.30572
18520.000 0.30549
18525.000 0.30524
18530.000 0.30499
18535.000 0.30472
18540.000 0.30443
18545.000 0.30413
18550.000 0.30381
18555.000 0.30346
18560.000 0.30309
18565.000 0.30271
18570.000 0.30230
18575.000 0.30188
18580.000 0.30142
18585.000 0.30094
18590.000 0.30043
18595.000 0.29990
18600.000 0.29932
18605.000 0.29873
18610.000 0.29811
18615.000 0.29745
18620.000 0.29678
18625.000 0.29609
18630.000 0.29537
18635.000 0.29462
18640.000 0.29388
18645.000 0.29311
18650.000 0.29233
18655.000 0.29153
18660.000 0.29073
18665.000 0.28993
18670.000 0.28911
18675.000 0.28830
18680.000 0.28748
18685.000 0.28666
18690.000 0.28586
18695.000 0.28505
18700.000 0.28425
18705.000 0.28346
18710.000 0.28268
18715.000 0.28193
18720.000 0.28118
18725.000 0.28046
18730.000 0.27976
18735.000 0.27910
18740.000 0.27847
18745.000 0.27786
18750.000 0.27731
18755.000 0.27679
18760.000 0.27633
18765.000 0.27591
18770.000 0.27554
18775.000 0.27523
18780.000 0.27499
18785.000 0.27480
18790.000 0.27468
18795.000 0.27464
18800.000 0.27466
18805.000 0.27477
18810.000 0.27494
18815.000 0.27516
18820.000 0.27546
18825.000 0.27579
18830.000 0.27617
18835.000 0.27658
18840.000 0.27703
18845.000 0.27748
18850.000 0.27796
18855.000 0.27844
18860.000 0.27890
18865.000 0.27938
18870.000 0.27983
18875.000 0.28025
18880.000 0.28065
18885.000 0.28101
18890.000 0.28132
18895.000 0.28159
18900.000 0.28178
18905.000 0.28193
18910.000 0.28201
18915.000 0.28202
18920.000 0.28198
18925.000 0.28190
18930.000 0.28177
18935.000 0.28160
18940.000 0.28139
18945.000 0.28114
18950.000 0.28087
18955.000 0.28056
18960.000 0.28025
18965.000 0.27990
18970.000 0.27955
18975.000 0.27920
18980.000 0.27883
18985.000 0.27845
18990.000 0.27809
18995.000 0.27773
19000.000 0.27738
19005.000 0.27705
19010.000 0.27674
19015.000 0.27643
19020.000 0.27613
19025.000 0.27585
19030.000 0.27557
19035.000 0.27530
19040.000 0.27505
19045.000 0.27480
19050.000 0.27454
19055.000 0.27430
19060.000 0.27406
19065.000 0.27383
19070.000 0.27359
19075.000 0.27335
19080.000 0.27311
19085.000 0.27287
19090.000 0.27262
19095.000 0.27236
19100.000 0.27211
19105.000 0.27184
19110.000 0.27158
19115.000 0.27131
19120.000 0.27103
19125.000 0.27075
19130.000 0.27046
19135.000 0.27017
19140.000 0.26989
19145.000 0.26959
19150.000 0.26931
19155.000 0.26903
19160.000 0.26875
19165.000 0.26847
19170.000 0.26819
19175.000 0.26792
19180.000 0.26765
19185.000 0.26740
19190.000 0.26716
19195.000 0.26691
19200.000 0.26668
19205.000 0.26646
19210.000 0.26625
19215.000 0.26603
19220.000 0.26584
19225.000 0.26563
19230.000 0.26542
19235.000 0.26519
19240.000 0.26497
19245.000 0.26473
19250.000 0.26446
19255.000 0.26419
19260.000 0.26390
19265.000 0.26357
19270.000 0.26322
19275.000 0.26284
19280.000 0.26243
19285.000 0.26198
19290.000 0.26151
19295.000 0.26097
19300.000 0.26041
19305.000 0.25979
19310.000 0.25913
19315.000 0.25843
19320.000 0.25770
19325.000 0.25694
19330.000 0.25615
19335.000 0.25533
19340.000 0.25450
19345.000 0.25367
19350.000 0.25283
19355.000 0.25197
19360.000 0.25113
19365.000 0.25028
19370.000 0.24946
19375.000 0.24863
19380.000 0.24782
19385.000 0.24705
19390.000 0.24629
19395.000 0.24557
19400.000 0.24488
19405.000 0.24865
19410.000 0.24623
19415.000 0.24382
19420.000 0.24161
19425.000 0.23971
19430.000 0.23811
19435.000 0.23690
19440.000 0.23615
19445.000 0.23594
19450.000 0.23629
19455.000 0.23718
19460.000 0.23853
19465.000 0.24013
19470.000 0.24178
19475.000 0.24323
19480.000 0.24432
19485.000 0.24505
19490.000 0.24546
19495.000 0.24563
19500.000 0.24569
19505.000 0.24574
19510.000 0.24587
19515.000 0.24615
19520.000 0.24663
19525.000 0.24735
19530.000 0.24833
19535.000 0.24958
19540.000 0.25106
19545.000 0.25259
19550.000 0.25396
19555.000 0.25484
19560.000 0.25501
19565.000 0.25446
19570.000 0.25341
19575.000 0.25216
19580.000 0.25100
19585.000 0.25009
19590.000 0.24950
19595.000 0.24919
19600.000 0.24915
19605.000 0.24930
19610.000 0.24957
19615.000 0.24989
19620.000 0.25020
19625.000 0.25031
19630.000 0.25009
19635.000 0.24954
19640.000 0.24864
19645.000 0.24744
19650.000 0.24607
19655.000 0.24469
19660.000 0.24342
19665.000 0.24237
19670.000 0.24154
19675.000 0.24096
19680.000 0.24061
19685.000 0.24044
19690.000 0.24044
19695.000 0.24057
19700.000 0.24079
19705.000 0.24107
19710.000 0.24136
19715.000 0.24161
19720.000 0.24179
19725.000 0.24186
19730.000 0.24182
19735.000 0.24165
19740.000 0.24141
19745.000 0.24109
19750.000 0.24071
19755.000 0.24031
19760.000 0.23989
19765.000 0.23947
19770.000 0.23906
19775.000 0.23867
19780.000 0.23830
19785.000 0.23799
19790.000 0.23774
19795.000 0.23757
19800.000 0.23746
19805.000 0.23739
19810.000 0.23735
19815.000 0.23729
19820.000 0.23718
19825.000 0.23700
19830.000 0.23674
19835.000 0.23636
19840.000 0.23586
19845.000 0.23527
19850.000 0.23462
19855.000 0.23393
19860.000 0.23324
19865.000 0.23259
19870.000 0.23206
19875.000 0.23165
19880.000 0.23143
19885.000 0.23136
19890.000 0.23140
19895.000 0.23151
19900.000 0.23161
19905.000 0.23164
19910.000 0.23155
19915.000 0.23133
19920.000 0.23096
19925.000 0.23047
19930.000 0.22988
19935.000 0.22925
19940.000 0.22863
19945.000 0.22811
19950.000 0.22773
19955.000 0.22760
19960.000 0.22776
19965.000 0.22825
19970.000 0.22909
19975.000 0.23026
19980.000 0.23171
19985.000 0.23337
19990.000 0.23511
19995.000 0.23687
20000.000 0.23850
20005.000 0.23988
20010.000 0.24083
20015.000 0.24119
20020.000 0.24071
20025.000 0.23923
20030.000 0.23674
20035.000 0.23354
20040.000 0.23001
20045.000 0.22666
20050.000 0.22427
20055.000 0.22310
20060.000 0.22265
20065.000 0.22271
20070.000 0.22319
20075.000 0.22386
20080.000 0.22461
20085.000 0.22531
20090.000 0.22593
20095.000 0.22641
20100.000 0.22672
20105.000 0.22680
20110.000 0.22666
20115.000 0.22627
20120.000 0.22563
20125.000 0.22480
20130.000 0.22386
20135.000 0.22292
20140.000 0.22209
20145.000 0.22144
20150.000 0.22101
20155.000 0.22078
20160.000 0.22071
20165.000 0.22074
20170.000 0.22082
20175.000 0.22091
20180.000 0.22099
20185.000 0.22102
20190.000 0.22101
20195.000 0.22092
20200.000 0.22078
20205.000 0.22058
20210.000 0.22033
20215.000 0.22004
20220.000 0.21971
20225.000 0.21939
20230.000 0.21904
20235.000 0.21870
20240.000 0.21839
20245.000 0.21810
20250.000 0.21786
20255.000 0.21766
20260.000 0.21752
20265.000 0.21743
20270.000 0.21743
20275.000 0.21752
20280.000 0.21766
20285.000 0.21781
20290.000 0.21800
20295.000 0.21814
20300.000 0.21824
20305.000 0.21822
20310.000 0.21811
20315.000 0.21787
20320.000 0.21751
20325.000 0.21703
20330.000 0.21646
20335.000 0.21585
20340.000 0.21521
20345.000 0.21459
20350.000 0.21402
20355.000 0.21351
20360.000 0.21312
20365.000 0.21282
20370.000 0.21261
20375.000 0.21250
20380.000 0.21246
20385.000 0.21241
20390.000 0.21237
20395.000 0.21229
20400.000 0.21212
20405.000 0.21187
20410.000 0.21151
20415.000 0.21109
20420.000 0.21061
20425.000 0.21014
20430.000 0.20967
20435.000 0.20928
20440.000 0.20900
20445.000 0.20884
20450.000 0.20886
20455.000 0.20903
20460.000 0.20935
20465.000 0.20978
20470.000 0.21032
20475.000 0.21090
20480.000 0.21147
20485.000 0.21201
20490.000 0.21247
20495.000 0.21275
20500.000 0.21284
20505.000 0.21275
20510.000 0.21250
20515.000 0.21205
20520.000 0.21142
20525.000 0.21066
20530.000 0.20983
20535.000 0.20897
20540.000 0.20815
20545.000 0.20742
20550.000 0.20680
20555.000 0.20633
20560.000 0.20596
20565.000 0.20569
20570.000 0.20548
20575.000 0.20531
20580.000 0.20516
20585.000 0.20498
20590.000 0.20476
20595.000 0.20451
20600.000 0.20423
20605.000 0.20391
20610.000 0.20357
20615.000 0.20322
20620.000 0.20288
20625.000 0.20258
20630.000 0.20235
20635.000 0.20218
20640.000 0.20209
20645.000 0.20211
20650.000 0.20221
20655.000 0.20240
20660.000 0.20266
20665.000 0.20295
20670.000 0.20325
20675.000 0.20353
20680.000 0.20375
20685.000 0.20389
20690.000 0.20395
20695.000 0.20389
20700.000 0.20374
20705.000 0.20346
20710.000 0.20309
20715.000 0.20263
20720.000 0.20211
20725.000 0.20154
20730.000 0.20094
20735.000 0.20036
20740.000 0.19983
20745.000 0.19935
20750.000 0.19894
20755.000 0.19863
20760.000 0.19839
20765.000 0.19825
20770.000 0.19820
20775.000 0.19818
20780.000 0.19821
20785.000 0.19827
20790.000 0.19831
20795.000 0.19834
20800.000 0.19834
20805.000 0.19827
20810.000 0.19815
20815.000 0.19799
20820.000 0.19775
20825.000 0.19747
20830.000 0.19714
20835.000 0.19679
20840.000 0.19641
20845.000 0.19602
20850.000 0.19564
20855.000 0.19526
20860.000 0.19489
20865.000 0.19454
20870.000 0.19419
20875.000 0.19385
20880.000 0.19354
20885.000 0.19323
20890.000 0.19295
20895.000 0.19270
20900.000 0.19249
20905.000 0.19233
20910.000 0.19223
20915.000 0.19222
20920.000 0.19226
20925.000 0.19240
20930.000 0.19260
20935.000 0.19285
20940.000 0.19312
20945.000 0.19340
20950.000 0.19367
20955.000 0.19387
20960.000 0.19394
20965.000 0.19389
20970.000 0.19373
20975.000 0.19344
20980.000 0.19302
20985.000 0.19252
20990.000 0.19193
20995.000 0.19131
21000.000 0.19069
21005.000 0.19013
21010.000 0.18965
21015.000 0.18928
21020.000 0.18906
21025.000 0.18897
21030.000 0.18903
21035.000 0.18921
21040.000 0.18946
21045.000 0.18977
21050.000 0.19007
21055.000 0.19032
21060.000 0.19049
21065.000 0.19055
21070.000 0.19046
21075.000 0.19024
21080.000 0.18987
21085.000 0.18939
21090.000 0.18883
21095.000 0.18823
21100.000 0.18762
21105.000 0.18705
21110.000 0.18655
21115.000 0.18617
21120.000 0.18591
21125.000 0.18577
21130.000 0.18574
21135.000 0.18579
21140.000 0.18592
21145.000 0.18608
21150.000 0.18622
21155.000 0.18630
21160.000 0.18631
21165.000 0.18623
21170.000 0.18603
21175.000 0.18574
21180.000 0.18534
21185.000 0.18487
21190.000 0.18435
21195.000 0.18383
21200.000 0.18332
21205.000 0.18287
21210.000 0.18249
21215.000 0.18221
21220.000 0.18203
21225.000 0.18194
21230.000 0.18194
21235.000 0.18200
21240.000 0.18210
21245.000 0.18219
21250.000 0.18228
21255.000 0.18233
21260.000 0.18232
21265.000 0.18225
21270.000 0.18210
21275.000 0.18188
21280.000 0.18160
21285.000 0.18129
21290.000 0.18094
21295.000 0.18059
21300.000 0.18027
21305.000 0.17996
21310.000 0.17969
21315.000 0.17947
21320.000 0.17930
21325.000 0.17917
21330.000 0.17909
21335.000 0.17904
21340.000 0.17902
21345.000 0.17900
21350.000 0.17899
21355.000 0.17896
21360.000 0.17892
21365.000 0.17886
21370.000 0.17878
21375.000 0.17866
21380.000 0.17854
21385.000 0.17840
21390.000 0.17823
21395.000 0.17806
21400.000 0.17786
21405.000 0.17768
21410.000 0.17748
21415.000 0.17730
21420.000 0.17710
21425.000 0.17692
21430.000 0.17672
21435.000 0.17654
21440.000 0.17637
21445.000 0.17619
21450.000 0.17603
21455.000 0.17587
21460.000 0.17571
21465.000 0.17557
21470.000 0.17542
21475.000 0.17526
21480.000 0.17509
21485.000 0.17491
21490.000 0.17471
21495.000 0.17450
21500.000 0.17426
21505.000 0.17401
21510.000 0.17374
21515.000 0.17346
21520.000 0.17319
21525.000 0.17293
21530.000 0.17266
21535.000 0.17242
21540.000 0.17220
21545.000 0.17200
21550.000 0.17180
21555.000 0.17159
21560.000 0.17138
21565.000 0.17114
21570.000 0.17082
21575.000 0.17035
21580.000 0.17000
21585.000 0.16996
21590.000 0.16992
21595.000 0.16958
21600.000 0.16879
21605.000 0.16755
21610.000 0.16605
21615.000 0.16438
21620.000 0.16255
21625.000 0.16062
21630.000 0.15872
21635.000 0.15694
21640.000 0.15536
21645.000 0.15408
21650.000 0.15317
21655.000 0.15263
21660.000 0.15251
21665.000 0.15275
21670.000 0.15332
21675.000 0.15418
21680.000 0.15521
21685.000 0.15633
21690.000 0.15747
21695.000 0.15847
21700.000 0.15924
21705.000 0.15976
21710.000 0.16009
21715.000 0.16031
21720.000 0.16044
21725.000 0.16051
21730.000 0.16054
21735.000 0.16058
21740.000 0.16064
21745.000 0.16076
21750.000 0.16099
21755.000 0.16134
21760.000 0.16186
21765.000 0.16252
21770.000 0.16324
21775.000 0.16394
21780.000 0.16460
21785.000 0.16518
21790.000 0.16564
21795.000 0.16598
21800.000 0.16616
21805.000 0.16619
21810.000 0.16609
21815.000 0.16587
21820.000 0.16557
21825.000 0.16522
21830.000 0.16485
21835.000 0.16452
21840.000 0.16425
21845.000 0.16405
21850.000 0.16397
21855.000 0.16400
21860.000 0.16411
21865.000 0.16432
21870.000 0.16459
21875.000 0.16487
21880.000 0.16514
21885.000 0.16535
21890.000 0.16549
21895.000 0.16552
21900.000 0.16542
21905.000 0.16521
21910.000 0.16485
21915.000 0.16438
21920.000 0.16381
21925.000 0.16320
21930.000 0.16252
21935.000 0.16180
21940.000 0.16118
21945.000 0.16073
21950.000 0.16030
21955.000 0.15981
21960.000 0.15936
21965.000 0.15903
21970.000 0.15882
21975.000 0.15872
21980.000 0.15871
21985.000 0.15875
21990.000 0.15885
21995.000 0.15896
22000.000 0.15909
22005.000 0.15919
22010.000 0.15927
22015.000 0.15930
22020.000 0.15930
22025.000 0.15927
22030.000 0.15920
22035.000 0.15912
22040.000 0.15900
22045.000 0.15891
22050.000 0.15892
22055.000 0.15903
22060.000 0.15920
22065.000 0.15931
22070.000 0.15929
22075.000 0.15917
22080.000 0.15906
22085.000 0.15895
22090.000 0.15879
22095.000 0.15858
22100.000 0.15836
22105.000 0.15808
22110.000 0.15777
22115.000 0.15743
22120.000 0.15708
22125.000 0.15673
22130.000 0.15639
22135.000 0.15607
22140.000 0.15580
22145.000 0.15556
22150.000 0.15536
22155.000 0.15522
22160.000 0.15512
22165.000 0.15505
22170.000 0.15501
22175.000 0.15498
22180.000 0.15495
22185.000 0.15493
22190.000 0.15487
22195.000 0.15480
22200.000 0.15470
22205.000 0.15456
22210.000 0.15438
22215.000 0.15420
22220.000 0.15400
22225.000 0.15380
22230.000 0.15362
22235.000 0.15346
22240.000 0.15335
22245.000 0.15327
22250.000 0.15324
22255.000 0.15324
22260.000 0.15328
22265.000 0.15335
22270.000 0.15344
22275.000 0.15352
22280.000 0.15358
22285.000 0.15360
22290.000 0.15359
22295.000 0.15352
22300.000 0.15339
22305.000 0.15320
22310.000 0.15294
22315.000 0.15263
22320.000 0.15230
22325.000 0.15193
22330.000 0.15157
22335.000 0.15121
22340.000 0.15090
22345.000 0.15064
22350.000 0.15044
22355.000 0.15030
22360.000 0.15022
22365.000 0.15020
22370.000 0.15022
22375.000 0.15027
22380.000 0.15036
22385.000 0.15043
22390.000 0.15048
22395.000 0.15051
22400.000 0.15047
22405.000 0.15038
22410.000 0.15022
22415.000 0.14999
22420.000 0.14970
22425.000 0.14934
22430.000 0.14896
22435.000 0.14856
22440.000 0.14816
22445.000 0.14780
22450.000 0.14746
22455.000 0.14719
22460.000 0.14698
22465.000 0.14683
22470.000 0.14674
22475.000 0.14673
22480.000 0.14680
22485.000 0.14688
22490.000 0.14700
22495.000 0.14711
22500.000 0.14722
22505.000 0.14730
22510.000 0.14736
22515.000 0.14738
22520.000 0.14735
22525.000 0.14726
22530.000 0.14712
22535.000 0.14695
22540.000 0.14677
22545.000 0.14656
22550.000 0.14635
22555.000 0.14615
22560.000 0.14597
22565.000 0.14583
22570.000 0.14570
22575.000 0.14562
22580.000 0.14556
22585.000 0.14553
22590.000 0.14550
22595.000 0.14548
22600.000 0.14543
22605.000 0.14535
22610.000 0.14525
22615.000 0.14510
22620.000 0.14489
22625.000 0.14463
22630.000 0.14434
22635.000 0.14401
22640.000 0.14366
22645.000 0.14331
22650.000 0.14297
22655.000 0.14265
22660.000 0.14238
22665.000 0.14216
22670.000 0.14199
22675.000 0.14188
22680.000 0.14183
22685.000 0.14183
22690.000 0.14188
22695.000 0.14196
22700.000 0.14205
22705.000 0.14214
22710.000 0.14224
22715.000 0.14230
22720.000 0.14233
22725.000 0.14231
22730.000 0.14224
22735.000 0.14214
22740.000 0.14199
22745.000 0.14182
22750.000 0.14161
22755.000 0.14140
22760.000 0.14119
22765.000 0.14099
22770.000 0.14081
22775.000 0.14067
22780.000 0.14055
22785.000 0.14048
22790.000 0.14043
22795.000 0.14040
22800.000 0.14039
22805.000 0.14037
22810.000 0.14034
22815.000 0.14029
22820.000 0.14022
22825.000 0.14009
22830.000 0.13992
22835.000 0.13971
22840.000 0.13946
22845.000 0.13918
22850.000 0.13887
22855.000 0.13856
22860.000 0.13825
22865.000 0.13797
22870.000 0.13771
22875.000 0.13750
22880.000 0.13733
22885.000 0.13722
22890.000 0.13715
22895.000 0.13714
22900.000 0.13717
22905.000 0.13722
22910.000 0.13729
22915.000 0.13736
22920.000 0.13743
22925.000 0.13749
22930.000 0.13752
22935.000 0.13750
22940.000 0.13745
22945.000 0.13735
22950.000 0.13721
22955.000 0.13705
22960.000 0.13687
22965.000 0.13669
22970.000 0.13649
22975.000 0.13632
22980.000 0.13617
22985.000 0.13603
22990.000 0.13591
22995.000 0.13583
23000.000 0.13577
23005.000 0.13573
23010.000 0.13569
23015.000 0.13565
23020.000 0.13560
23025.000 0.13553
23030.000 0.13542
23035.000 0.13525
23040.000 0.13504
23045.000 0.13479
23050.000 0.13451
23055.000 0.13421
23060.000 0.13388
23065.000 0.13355
23070.000 0.13323
23075.000 0.13293
23080.000 0.13267
23085.000 0.13244
23090.000 0.13227
23095.000 0.13215
23100.000 0.13208
23105.000 0.13205
23110.000 0.13208
23115.000 0.13213
23120.000 0.13222
23125.000 0.13231
23130.000 0.13243
23135.000 0.13255
23140.000 0.13267
23145.000 0.13275
23150.000 0.13282
23155.000 0.13286
23160.000 0.13288
23165.000 0.13285
23170.000 0.13281
23175.000 0.13274
23180.000 0.13267
23185.000 0.13258
23190.000 0.13248
23195.000 0.13240
23200.000 0.13231
23205.000 0.13223
23210.000 0.13215
23215.000 0.13205
23220.000 0.13195
23225.000 0.13182
23230.000 0.13168
23235.000 0.13151
23240.000 0.13130
23245.000 0.13106
23250.000 0.13080
23255.000 0.13050
23260.000 0.13018
23265.000 0.12985
23270.000 0.12952
23275.000 0.12921
23280.000 0.12891
23285.000 0.12866
23290.000 0.12845
23295.000 0.12828
23300.000 0.12818
23305.000 0.12812
23310.000 0.12811
23315.000 0.12814
23320.000 0.12819
23325.000 0.12826
23330.000 0.12833
23335.000 0.12839
23340.000 0.12840
23345.000 0.12838
23350.000 0.12828
23355.000 0.12812
23360.000 0.12791
23365.000 0.12765
23370.000 0.12732
23375.000 0.12698
23380.000 0.12662
23385.000 0.12628
23390.000 0.12596
23395.000 0.12569
23400.000 0.12551
23405.000 0.12540
23410.000 0.12538
23415.000 0.12545
23420.000 0.12562
23425.000 0.12587
23430.000 0.12618
23435.000 0.12653
23440.000 0.12691
23445.000 0.12728
23450.000 0.12760
23455.000 0.12787
23460.000 0.12805
23465.000 0.12812
23470.000 0.12808
23475.000 0.12793
23480.000 0.12765
23485.000 0.12727
23490.000 0.12679
23495.000 0.12625
23500.000 0.12569
23505.000 0.12513
23510.000 0.12458
23515.000 0.12410
23520.000 0.12369
23525.000 0.12338
23530.000 0.12319
23535.000 0.12310
23540.000 0.12312
23545.000 0.12323
23550.000 0.12341
23555.000 0.12367
23560.000 0.12395
23565.000 0.12421
23570.000 0.12448
23575.000 0.12468
23580.000 0.12482
23585.000 0.12488
23590.000 0.12483
23595.000 0.12469
23600.000 0.12448
23605.000 0.12419
23610.000 0.12383
23615.000 0.12345
23620.000 0.12305
23625.000 0.12265
23630.000 0.12227
23635.000 0.12194
23640.000 0.12167
23645.000 0.12144
23650.000 0.12130
23655.000 0.12122
23660.000 0.12122
23665.000 0.12126
23670.000 0.12135
23675.000 0.12147
23680.000 0.12160
23685.000 0.12173
23690.000 0.12182
23695.000 0.12187
23700.000 0.12184
23705.000 0.12175
23710.000 0.12157
23715.000 0.12133
23720.000 0.12102
23725.000 0.12066
23730.000 0.12028
23735.000 0.11988
23740.000 0.11952
23745.000 0.11918
23750.000 0.11888
23755.000 0.11866
23760.000 0.11849
23765.000 0.11839
23770.000 0.11836
23775.000 0.11839
23780.000 0.11846
23785.000 0.11859
23790.000 0.11874
23795.000 0.11891
23800.000 0.11908
23805.000 0.11925
23810.000 0.11939
23815.000 0.11950
23820.000 0.11957
23825.000 0.11959
23830.000 0.11955
23835.000 0.11946
23840.000 0.11932
23845.000 0.11915
23850.000 0.11894
23855.000 0.11872
23860.000 0.11849
23865.000 0.11827
23870.000 0.11805
23875.000 0.11789
23880.000 0.11773
23885.000 0.11762
23890.000 0.11755
23895.000 0.11749
23900.000 0.11746
23905.000 0.11746
23910.000 0.11746
23915.000 0.11748
23920.000 0.11748
23925.000 0.11746
23930.000 0.11744
23935.000 0.11737
23940.000 0.11728
23945.000 0.11717
23950.000 0.11703
23955.000 0.11686
23960.000 0.11666
23965.000 0.11644
23970.000 0.11621
23975.000 0.11597
23980.000 0.11573
23985.000 0.11550
23990.000 0.11526
23995.000 0.11503
24000.000 0.11481
24005.000 0.11461
24010.000 0.11441
24015.000 0.11423
24020.000 0.11406
24025.000 0.11391
24030.000 0.11377
24035.000 0.11365
24040.000 0.11354
24045.000 0.11346
24050.000 0.11337
24055.000 0.11333
24060.000 0.11329
24065.000 0.11327
24070.000 0.11329
24075.000 0.11332
24080.000 0.11334
24085.000 0.11340
24090.000 0.11346
24095.000 0.11351
24100.000 0.11357
24105.000 0.11360
24110.000 0.11363
24115.000 0.11363
24120.000 0.11360
24125.000 0.11354
24130.000 0.11346
24135.000 0.11333
24140.000 0.11319
24145.000 0.11302
24150.000 0.11284
24155.000 0.11264
24160.000 0.11244
24165.000 0.11226
24170.000 0.11208
24175.000 0.11194
24180.000 0.11183
24185.000 0.11175
24190.000 0.11174
24195.000 0.11175
24200.000 0.11181
24205.000 0.11190
24210.000 0.11201
24215.000 0.11211
24220.000 0.11219
24225.000 0.11226
24230.000 0.11229
24235.000 0.11228
24240.000 0.11219
24245.000 0.11204
24250.000 0.11183
24255.000 0.11159
24260.000 0.11129
24265.000 0.11097
24270.000 0.11062
24275.000 0.11024
24280.000 0.10986
24285.000 0.10948
24290.000 0.10911
24295.000 0.10879
24300.000 0.10849
24305.000 0.10827
24310.000 0.10811
24315.000 0.10804
24320.000 0.10807
24325.000 0.10818
24330.000 0.10841
24335.000 0.10870
24340.000 0.10907
24345.000 0.10946
24350.000 0.10987
24355.000 0.11024
24360.000 0.11055
24365.000 0.11076
24370.000 0.11087
24375.000 0.11087
24380.000 0.11076
24385.000 0.11053
24390.000 0.11022
24395.000 0.10983
24400.000 0.10938
24405.000 0.10887
24410.000 0.10835
24415.000 0.10782
24420.000 0.10730
24425.000 0.10679
24430.000 0.10631
24435.000 0.10588
24440.000 0.10550
24445.000 0.10519
24450.000 0.10496
24455.000 0.10481
24460.000 0.10475
24465.000 0.10477
24470.000 0.10488
24475.000 0.10505
24480.000 0.10529
24485.000 0.10554
24490.000 0.10581
24495.000 0.10605
24500.000 0.10624
24505.000 0.10638
24510.000 0.10645
24515.000 0.10644
24520.000 0.10637
24525.000 0.10623
24530.000 0.10605
24535.000 0.10583
24540.000 0.10562
24545.000 0.10541
24550.000 0.10522
24555.000 0.10505
24560.000 0.10493
24565.000 0.10488
24570.000 0.10488
24575.000 0.10492
24580.000 0.10500
24585.000 0.10513
24590.000 0.10529
24595.000 0.10548
24600.000 0.10569
24605.000 0.10589
24610.000 0.10607
24615.000 0.10623
24620.000 0.10633
24625.000 0.10637
24630.000 0.10634
24635.000 0.10623
24640.000 0.10603
24645.000 0.10574
24650.000 0.10538
24655.000 0.10495
24660.000 0.10446
24665.000 0.10394
24670.000 0.10337
24675.000 0.10283
24680.000 0.10228
24685.000 0.10177
24690.000 0.10129
24695.000 0.10088
24700.000 0.10055
24705.000 0.10028
24710.000 0.10011
24715.000 0.10003
24720.000 0.10001
24725.000 0.10008
24730.000 0.10022
24735.000 0.10043
24740.000 0.10067
24745.000 0.10095
24750.000 0.10124
24755.000 0.10150
24760.000 0.10177
24765.000 0.10198
24770.000 0.10216
24775.000 0.10228
24780.000 0.10235
24785.000 0.10236
24790.000 0.10232
24795.000 0.10222
24800.000 0.10208
24805.000 0.10191
24810.000 0.10171
24815.000 0.10152
24820.000 0.10131
24825.000 0.10111
24830.000 0.10093
24835.000 0.10077
24840.000 0.10065
24845.000 0.10058
24850.000 0.10055
24855.000 0.10059
24860.000 0.10066
24865.000 0.10080
24870.000 0.10097
24875.000 0.10118
24880.000 0.10140
24885.000 0.10164
24890.000 0.10184
24895.000 0.10200
24900.000 0.10211
24905.000 0.10215
24910.000 0.10214
24915.000 0.10202
24920.000 0.10184
24925.000 0.10159
24930.000 0.10126
24935.000 0.10088
24940.000 0.10045
24945.000 0.09997
24950.000 0.09948
24955.000 0.09897
24960.000 0.09845
24965.000 0.09796
24970.000 0.09748
24975.000 0.09702
24980.000 0.09660
24985.000 0.09623
24990.000 0.09830
24995.000 0.09824
25000.000 0.09820
