# Wavelength_[A] F_lambda_[norm]
1150.000 4535.76982
1155.000 3578.41129
1160.000 3058.44143
1165.000 3007.06715
1170.000 2687.91029
1175.000 2138.20571
1180.000 2330.33812
1185.000 2595.75151
1190.000 2399.23346
1195.000 2135.13370
1200.000 2148.06682
1205.000 1969.09261
1210.000 1566.70410
1215.000 906.07225
1220.000 1425.87327
1225.000 2250.92557
1230.000 2446.11194
1235.000 2526.90048
1240.000 2505.25554
1245.000 2418.10385
1250.000 2327.32190
1255.000 2341.88028
1260.000 2416.09393
1265.000 2528.41742
1270.000 2512.19603
1275.000 2497.36068
1280.000 2488.53337
1285.000 2434.49777
1290.000 2456.58973
1295.000 2315.31895
1300.000 2169.27743
1305.000 2255.22362
1310.000 2477.33793
1315.000 2394.59651
1320.000 2369.05687
1325.000 2250.29760
1330.000 2272.28821
1335.000 2099.07933
1340.000 2068.93657
1345.000 2064.05854
1350.000 2067.65782
1355.000 2082.54179
1360.000 2022.22099
1365.000 2006.30467
1370.000 1992.58333
1375.000 1929.29515
1380.000 1892.34958
1385.000 1793.71050
1390.000 1611.89107
1395.000 1347.29028
1400.000 1418.17229
1405.000 1460.47717
1410.000 1613.76065
1415.000 1652.49460
1420.000 1594.75210
1425.000 1531.55951
1430.000 1499.93635
1435.000 1594.51310
1440.000 1574.19111
1445.000 1563.09119
1450.000 1549.88262
1455.000 1514.77834
1460.000 1503.47674
1465.000 1502.59016
1470.000 1515.18743
1475.000 1521.54168
1480.000 1502.59906
1485.000 1502.96940
1490.000 1534.11875
1495.000 1475.61369
1500.000 1378.69579
1505.000 1359.97507
1510.000 1387.22510
1515.000 1375.01699
1520.000 1398.01127
1525.000 1296.69036
1530.000 1183.92629
1535.000 1137.78558
1540.000 1129.48645
1545.000 965.58812
1550.000 823.21969
1555.000 1035.21886
1560.000 1124.80865
1565.000 1094.32215
1570.000 1114.25054
1575.000 1132.58484
1580.000 1119.46254
1585.000 1159.58212
1590.000 1155.55712
1595.000 1101.17441
1600.000 1081.35877
1605.000 1037.51304
1610.000 984.88061
1615.000 993.92005
1620.000 979.52600
1625.000 980.10393
1630.000 974.60899
1635.000 985.32712
1640.000 964.92812
1645.000 998.02802
1650.000 1051.36813
1655.000 997.48085
1660.000 957.26920
1665.000 977.69375
1670.000 952.71295
1675.000 958.45797
1680.000 1001.83903
1685.000 995.26597
1690.000 953.64354
1695.000 954.96558
1700.000 948.76019
1705.000 936.41597
1710.000 944.84414
1715.000 918.30959
1720.000 843.28705
1725.000 840.52364
1730.000 884.72757
1735.000 916.86765
1740.000 901.61767
1745.000 901.85205
1750.000 883.58032
1755.000 893.82804
1760.000 917.61934
1765.000 913.46316
1770.000 901.00177
1775.000 887.14526
1780.000 882.23233
1785.000 857.59756
1790.000 784.52380
1795.000 805.09022
1800.000 847.27372
1805.000 828.06653
1810.000 821.91180
1815.000 833.68154
1820.000 835.73690
1825.000 835.25678
1830.000 842.23379
1835.000 838.95603
1840.000 800.84629
1845.000 765.52778
1850.000 755.65502
1855.000 750.32524
1860.000 752.96367
1865.000 759.79956
1870.000 748.16253
1875.000 742.18659
1880.000 738.38098
1885.000 699.56817
1890.000 679.24898
1895.000 682.73212
1900.000 688.73072
1905.000 677.90067
1910.000 670.77253
1915.000 656.22881
1920.000 624.96313
1925.000 616.07562
1930.000 642.22324
1935.000 668.59164
1940.000 659.36009
1945.000 663.60756
1950.000 655.84369
1955.000 637.88569
1960.000 604.73631
1965.000 599.76791
1970.000 609.26439
1975.000 615.47034
1980.000 617.87310
1985.000 610.06464
1990.000 589.52240
1995.000 578.30833
2000.000 573.23059
2005.000 583.39663
2010.000 574.40720
2015.000 582.44872
2020.000 588.91570
2025.000 597.75618
2030.000 594.20326
2035.000 592.95187
2040.000 585.77442
2045.000 577.63865
2050.000 582.62305
2055.000 550.42871
2060.000 501.51498
2065.000 522.38166
2070.000 556.13800
2075.000 564.44092
2080.000 548.52716
2085.000 553.70082
2090.000 550.67261
2095.000 533.88359
2100.000 513.09920
2105.000 519.80773
2110.000 520.28146
2115.000 535.35786
2120.000 530.27017
2125.000 523.89572
2130.000 547.78270
2135.000 522.41992
2140.000 518.84495
2145.000 522.19767
2150.000 504.40508
2155.000 502.60549
2160.000 503.69197
2165.000 490.50024
2170.000 490.19579
2175.000 480.29571
2180.000 481.72669
2185.000 471.52049
2190.000 476.96348
2195.000 483.98930
2200.000 480.04628
2205.000 468.07631
2210.000 452.87996
2215.000 447.55187
2220.000 439.59266
2225.000 428.48553
2230.000 423.82618
2235.000 431.51008
2240.000 439.87773
2245.000 433.40462
2250.000 423.70665
2255.000 419.76855
2260.000 425.82424
2265.000 425.38870
2270.000 414.03603
2275.000 408.54480
2280.000 416.38002
2285.000 413.70348
2290.000 404.39435
2295.000 400.49715
2300.000 380.72574
2305.000 375.22564
2310.000 393.51393
2315.000 397.41019
2320.000 401.53262
2325.000 391.72125
2330.000 393.98932
2335.000 403.37488
2340.000 382.55179
2345.000 376.89120
2350.000 376.87569
2355.000 385.17336
2360.000 396.77544
2365.000 389.54921
2370.000 382.96254
2375.000 382.02775
2380.000 366.73758
2385.000 360.93538
2390.000 351.20469
2395.000 352.83414
2400.000 355.10719
2405.000 369.09073
2410.000 361.92492
2415.000 356.58255
2420.000 357.59756
2425.000 345.44555
2430.000 356.45407
2435.000 367.09051
2440.000 364.22639
2445.000 344.78638
2450.000 349.53813
2455.000 359.90207
2460.000 358.04190
2465.000 367.52361
2470.000 350.27955
2475.000 333.92562
2480.000 340.09670
2485.000 345.85146
2490.000 349.56475
2495.000 342.00030
2500.000 347.05919
2505.000 344.79934
2510.000 338.78240
2515.000 319.51769
2520.000 327.56938
2525.000 321.68517
2530.000 334.87668
2535.000 344.27350
2540.000 323.62526
2545.000 318.89446
2550.000 323.99997
2555.000 326.86165
2560.000 323.09390
2565.000 318.96052
2570.000 318.82728
2575.000 331.70875
2580.000 292.94536
2585.000 273.51638
2590.000 295.84500
2595.000 309.07320
2600.000 322.43791
2605.000 306.39341
2610.000 310.13851
2615.000 322.68595
2620.000 316.95415
2625.000 314.46058
2630.000 315.44539
2635.000 317.46171
2640.000 319.94877
2645.000 309.45991
2650.000 306.63857
2655.000 305.90836
2660.000 295.83799
2665.000 285.95977
2670.000 288.46467
2675.000 293.01995
2680.000 288.71932
2685.000 284.74914
2690.000 291.70066
2695.000 280.39166
2700.000 264.56983
2705.000 266.58807
2710.000 279.78337
2715.000 272.72744
2720.000 269.51371
2725.000 260.06190
2730.000 265.47604
2735.000 266.11227
2740.000 264.11149
2745.000 259.99739
2750.000 276.03345
2755.000 269.16005
2760.000 267.16884
2765.000 281.11036
2770.000 266.81706
2775.000 254.86149
2780.000 250.90908
2785.000 244.67745
2790.000 236.87125
2795.000 240.75664
2800.000 230.55905
2805.000 229.38854
2810.000 239.07406
2815.000 246.73166
2820.000 253.30158
2825.000 247.36297
2830.000 229.82026
2835.000 228.27587
2840.000 238.33349
2845.000 235.61039
2850.000 229.82699
2855.000 222.43280
2860.000 227.46397
2865.000 232.99274
2870.000 229.82177
2875.000 225.79706
2880.000 229.02205
2885.000 226.98306
2890.000 226.00624
2895.000 228.73486
2900.000 228.78595
2905.000 222.27321
2910.000 218.64636
2915.000 217.70560
2920.000 216.38012
2925.000 217.24215
2930.000 219.41371
2935.000 218.76780
2940.000 215.39959
2945.000 215.97472
2950.000 211.17506
2955.000 212.04612
2960.000 216.21838
2965.000 212.16037
2970.000 211.82554
2975.000 206.10587
2980.000 208.02232
2985.000 207.30058
2990.000 201.95738
2995.000 202.21491
3000.000 204.70646
3005.000 202.71467
3010.000 202.58341
3015.000 198.56335
3020.000 195.34003
3025.000 189.72244
3030.000 183.76557
3035.000 188.83952
3040.000 189.91594
3045.000 189.32876
3050.000 190.19896
3055.000 190.53181
3060.000 185.09861
3065.000 182.35778
3070.000 185.03095
3075.000 182.13569
3080.000 184.35743
3085.000 187.15403
3090.000 185.58132
3095.000 185.61181
3100.000 182.86644
3105.000 186.63106
3110.000 180.60100
3115.000 175.72021
3120.000 173.63015
3125.000 179.33527
3130.000 181.35603
3135.000 183.76651
3140.000 182.66180
3145.000 178.96921
3150.000 177.68759
3155.000 174.38873
3160.000 170.78213
3165.000 172.78520
3170.000 172.92030
3175.000 174.42758
3180.000 165.76791
3185.000 162.97394
3190.000 166.02409
3195.000 164.87776
3200.000 167.69547
3205.000 168.92153
3210.000 168.56231
3215.000 164.83586
3220.000 161.43052
3225.000 162.10296
3230.000 165.41285
3235.000 168.73486
3240.000 169.90002
3245.000 167.65002
3250.000 163.91288
3255.000 161.08021
3260.000 160.21176
3265.000 161.22392
3270.000 160.79114
3275.000 156.31698
3280.000 151.36318
3285.000 149.78114
3290.000 150.42325
3295.000 151.19286
3300.000 151.19638
3305.000 150.14260
3310.000 148.94660
3315.000 148.55507
3320.000 148.83479
3325.000 149.39405
3330.000 149.88717
3335.000 149.95966
3340.000 149.17648
3345.000 147.42328
3350.000 145.94950
3355.000 145.82723
3360.000 146.05539
3365.000 145.34121
3370.000 143.29808
3375.000 140.24785
3380.000 138.43955
3385.000 139.60926
3390.000 141.51347
3395.000 141.68568
3400.000 140.74661
3405.000 139.83317
3410.000 139.05999
3415.000 138.30158
3420.000 137.49462
3425.000 136.56206
3430.000 135.30964
3435.000 133.72249
3440.000 132.62095
3445.000 132.66648
3450.000 133.05018
3455.000 132.89502
3460.000 132.52175
3465.000 132.33449
3470.000 131.87230
3475.000 130.70458
3480.000 129.38668
3485.000 128.54891
3490.000 128.13550
3495.000 127.84264
3500.000 127.05975
3505.000 125.41793
3510.000 123.44638
3515.000 124.12335
3520.000 124.41919
3525.000 123.84611
3530.000 122.69713
3535.000 122.14499
3540.000 122.09893
3545.000 121.22292
3550.000 119.23930
3555.000 119.48050
3560.000 118.79620
3565.000 117.33008
3570.000 115.98612
3575.000 114.82685
3580.000 112.93847
3585.000 111.74419
3590.000 111.14854
3595.000 111.60278
3600.000 111.23015
3605.000 110.09301
3610.000 108.59681
3615.000 108.31005
3620.000 108.89002
3625.000 107.90986
3630.000 106.12878
3635.000 106.38139
3640.000 107.20601
3645.000 107.77834
3650.000 108.25990
3655.000 109.90935
3660.000 110.00753
3665.000 107.58511
3670.000 106.52893
3675.000 105.32634
3680.000 105.67707
3685.000 106.00003
3690.000 106.10243
3695.000 104.61692
3700.000 102.38512
3705.000 100.27514
3710.000 102.18423
3715.000 103.59675
3720.000 103.73992
3725.000 103.34984
3730.000 104.31115
3735.000 103.77673
3740.000 105.75062
3745.000 103.58083
3750.000 99.44813
3755.000 101.24231
3760.000 103.47402
3765.000 103.20222
3770.000 98.32451
3775.000 103.20501
3780.000 111.76119
3785.000 113.99828
3790.000 110.13542
3795.000 101.41575
3800.000 101.67990
3805.000 110.46986
3810.000 115.95999
3815.000 115.28267
3820.000 113.77657
3825.000 114.32433
3830.000 106.40430
3835.000 97.85079
3840.000 103.85783
3845.000 112.57384
3850.000 114.96367
3855.000 115.56811
3860.000 115.29405
3865.000 113.32599
3870.000 111.12208
3875.000 109.65330
3880.000 103.99602
3885.000 94.40360
3890.000 89.90134
3895.000 99.22682
3900.000 106.80846
3905.000 108.94189
3910.000 108.96658
3915.000 108.50403
3920.000 106.21714
3925.000 104.16734
3930.000 104.06486
3935.000 101.99180
3940.000 104.18189
3945.000 104.49271
3950.000 103.93135
3955.000 101.93130
3960.000 96.39128
3965.000 85.72497
3970.000 79.55370
3975.000 87.10592
3980.000 94.87160
3985.000 97.63467
3990.000 98.70698
3995.000 98.27038
4000.000 96.97147
4005.000 96.20996
4010.000 95.44635
4015.000 95.33387
4020.000 92.36851
4025.000 88.03423
4030.000 89.37327
4035.000 92.21069
4040.000 92.73975
4045.000 93.30023
4050.000 94.07586
4055.000 93.24123
4060.000 92.72884
4065.000 91.85818
4070.000 89.05031
4075.000 89.10713
4080.000 89.42869
4085.000 87.97897
4090.000 84.61297
4095.000 78.90180
4100.000 71.35509
4105.000 73.12294
4110.000 80.33799
4115.000 83.36571
4120.000 84.72929
4125.000 85.71149
4130.000 85.93490
4135.000 85.16037
4140.000 83.85111
4145.000 82.09890
4150.000 82.53294
4155.000 82.61350
4160.000 82.59328
4165.000 82.88101
4170.000 81.62007
4175.000 81.29539
4180.000 80.80572
4185.000 79.48128
4190.000 78.82166
4195.000 78.02923
4200.000 76.98580
4205.000 77.76301
4210.000 78.12544
4215.000 77.81567
4220.000 78.03079
4225.000 78.21625
4230.000 77.02167
4235.000 77.21238
4240.000 76.79735
4245.000 75.87391
4250.000 75.55599
4255.000 75.06177
4260.000 74.37719
4265.000 74.77218
4270.000 74.68304
4275.000 73.64298
4280.000 74.08016
4285.000 74.20738
4290.000 74.07250
4295.000 74.42979
4300.000 73.93643
4305.000 72.84906
4310.000 72.40357
4315.000 71.75040
4320.000 71.06101
4325.000 70.45665
4330.000 67.52727
4335.000 62.05539
4340.000 56.17541
4345.000 58.64298
4350.000 64.14693
4355.000 67.50672
4360.000 68.68993
4365.000 68.67366
4370.000 68.36896
4375.000 67.85326
4380.000 67.70168
4385.000 65.89201
4390.000 64.79246
4395.000 66.74414
4400.000 66.73846
4405.000 65.95614
4410.000 65.06136
4415.000 63.91288
4420.000 63.43995
4425.000 62.29830
4430.000 61.24844
4435.000 61.41473
4440.000 62.12154
4445.000 62.85283
4450.000 63.08686
4455.000 63.32903
4460.000 62.79824
4465.000 60.41164
4470.000 57.12265
4475.000 58.11912
4480.000 60.19579
4485.000 61.04749
4490.000 61.69046
4495.000 61.46402
4500.000 60.94299
4505.000 60.49817
4510.000 60.16680
4515.000 59.59901
4520.000 60.12878
4525.000 59.48204
4530.000 58.77235
4535.000 57.99645
4540.000 57.35872
4545.000 57.80472
4550.000 57.67683
4555.000 58.07158
4560.000 58.14402
4565.000 57.86299
4570.000 57.15782
4575.000 57.10727
4580.000 57.07075
4585.000 56.69288
4590.000 55.67196
4595.000 55.46881
4600.000 55.67602
4605.000 55.39564
4610.000 54.53802
4615.000 54.35197
4620.000 54.74067
4625.000 54.19280
4630.000 53.28221
4635.000 52.80897
4640.000 51.87905
4645.000 50.78999
4650.000 50.21289
4655.000 51.81010
4660.000 52.31723
4665.000 52.39195
4670.000 52.75557
4675.000 51.64198
4680.000 50.50148
4685.000 49.25056
4690.000 50.15048
4695.000 50.86342
4700.000 50.58756
4705.000 50.16091
4710.000 49.38249
4715.000 49.35315
4720.000 49.55480
4725.000 49.40908
4730.000 49.13746
4735.000 49.07575
4740.000 48.93869
4745.000 48.60971
4750.000 48.18049
4755.000 47.86369
4760.000 47.50637
4765.000 47.41191
4770.000 47.38443
4775.000 47.05316
4780.000 47.07578
4785.000 47.23690
4790.000 47.53751
4795.000 47.32451
4800.000 46.83433
4805.000 46.39965
4810.000 45.83527
4815.000 45.56136
4820.000 45.58054
4825.000 45.54679
4830.000 45.31857
4835.000 45.77657
4840.000 45.31766
4845.000 44.46077
4850.000 42.45948
4855.000 38.72195
4860.000 35.33839
4865.000 37.27953
4870.000 40.73209
4875.000 41.84449
4880.000 42.20192
4885.000 42.03915
4890.000 42.53466
4895.000 42.62206
4900.000 42.70657
4905.000 42.41909
4910.000 42.10318
4915.000 41.77955
4920.000 40.18708
4925.000 40.47604
4930.000 41.99747
4935.000 41.93974
4940.000 42.07500
4945.000 42.15037
4950.000 41.95033
4955.000 41.71130
4960.000 41.47131
4965.000 41.16941
4970.000 41.10140
4975.000 40.74602
4980.000 40.68347
4985.000 40.42691
4990.000 40.52426
4995.000 40.64400
5000.000 40.16774
5005.000 39.81599
5010.000 39.62555
5015.000 39.08430
5020.000 39.09691
5025.000 39.17269
5030.000 39.01404
5035.000 38.83914
5040.000 38.77791
5045.000 38.10815
5050.000 37.93221
5055.000 38.24599
5060.000 38.13036
5065.000 38.21023
5070.000 38.21475
5075.000 37.96824
5080.000 37.76705
5085.000 37.34108
5090.000 37.13795
5095.000 37.00748
5100.000 37.10581
5105.000 37.10065
5110.000 36.85554
5115.000 36.71198
5120.000 36.46332
5125.000 36.40505
5130.000 36.17043
5135.000 36.30470
5140.000 36.28835
5145.000 35.80405
5150.000 35.69902
5155.000 35.35092
5160.000 35.25255
5165.000 35.29746
5170.000 35.23365
5175.000 35.27735
5180.000 35.27087
5185.000 34.97341
5190.000 34.76272
5195.000 34.82570
5200.000 34.64862
5205.000 34.30894
5210.000 34.21822
5215.000 34.00223
5220.000 33.94326
5225.000 34.01589
5230.000 33.75156
5235.000 33.68033
5240.000 33.63053
5245.000 33.45921
5250.000 33.10805
5255.000 32.96894
5260.000 33.05808
5265.000 32.76740
5270.000 32.60205
5275.000 32.52705
5280.000 32.57158
5285.000 32.41973
5290.000 32.28299
5295.000 32.36017
5300.000 32.41328
5305.000 31.98690
5310.000 31.78797
5315.000 31.73136
5320.000 31.74137
5325.000 31.83535
5330.000 31.61614
5335.000 31.44442
5340.000 31.32661
5345.000 31.36289
5350.000 31.38983
5355.000 31.15513
5360.000 30.85974
5365.000 30.72082
5370.000 30.56362
5375.000 30.36587
5380.000 30.38564
5385.000 30.26627
5390.000 30.10097
5395.000 29.97865
5400.000 29.89650
5405.000 29.50540
5410.000 28.84412
5415.000 29.00535
5420.000 29.49013
5425.000 29.46951
5430.000 29.46421
5435.000 29.23518
5440.000 29.03238
5445.000 28.73403
5450.000 28.50417
5455.000 28.44595
5460.000 28.54561
5465.000 28.46639
5470.000 28.36232
5475.000 28.35603
5480.000 28.11036
5485.000 27.87523
5490.000 27.77288
5495.000 27.96383
5500.000 28.12765
5505.000 27.93966
5510.000 27.83793
5515.000 27.67481
5520.000 27.56032
5525.000 27.36157
5530.000 27.20851
5535.000 26.97142
5540.000 26.80101
5545.000 26.88534
5550.000 27.07597
5555.000 27.12921
5560.000 26.94902
5565.000 26.83457
5570.000 26.83202
5575.000 26.97133
5580.000 26.64330
5585.000 26.23368
5590.000 26.05746
5595.000 26.14532
5600.000 26.02910
5605.000 26.10065
5610.000 26.04472
5615.000 25.91301
5620.000 25.83893
5625.000 25.81308
5630.000 25.50280
5635.000 25.46666
5640.000 25.50194
5645.000 25.31400
5650.000 25.18934
5655.000 25.02832
5660.000 25.06327
5665.000 24.92678
5670.000 24.77939
5675.000 24.72077
5680.000 24.66441
5685.000 24.64981
5690.000 24.61929
5695.000 24.35641
5700.000 24.09027
5705.000 23.94017
5710.000 24.11601
5715.000 23.99685
5720.000 23.80236
5725.000 23.90145
5730.000 23.72069
5735.000 23.56448
5740.000 23.33963
5745.000 23.34699
5750.000 23.48841
5755.000 23.49820
5760.000 23.26667
5765.000 23.04558
5770.000 22.77555
5775.000 22.33729
5780.000 21.78181
5785.000 22.13711
5790.000 22.42793
5795.000 22.14986
5800.000 22.00180
5805.000 22.23271
5810.000 22.30596
5815.000 22.31352
5820.000 22.39039
5825.000 22.42976
5830.000 22.32650
5835.000 22.21518
5840.000 22.08457
5845.000 21.78523
5850.000 21.88445
5855.000 21.84737
5860.000 22.00024
5865.000 21.79397
5870.000 20.90217
5875.000 19.99849
5880.000 20.58374
5885.000 20.27261
5890.000 19.16844
5895.000 19.46784
5900.000 20.45609
5905.000 21.17624
5910.000 21.09793
5915.000 20.97674
5920.000 20.72954
5925.000 20.94305
5930.000 21.06594
5935.000 20.61576
5940.000 20.58212
5945.000 20.26041
5950.000 20.40497
5955.000 20.39005
5960.000 20.25048
5965.000 19.94504
5970.000 19.95907
5975.000 20.06446
5980.000 20.05814
5985.000 19.94442
5990.000 19.93363
5995.000 19.92514
6000.000 19.82137
6005.000 19.62695
6010.000 19.55467
6015.000 19.52552
6020.000 19.55295
6025.000 19.43700
6030.000 19.33559
6035.000 19.25463
6040.000 19.08756
6045.000 19.34990
6050.000 19.34213
6055.000 19.29967
6060.000 19.12144
6065.000 18.95622
6070.000 18.95412
6075.000 18.89225
6080.000 18.93003
6085.000 18.84439
6090.000 18.85627
6095.000 18.70781
6100.000 18.65903
6105.000 18.54109
6110.000 18.46873
6115.000 18.49779
6120.000 18.43334
6125.000 18.41175
6130.000 18.32521
6135.000 18.18000
6140.000 18.14034
6145.000 18.09312
6150.000 18.06424
6155.000 17.95897
6160.000 17.91075
6165.000 17.76146
6170.000 17.57809
6175.000 17.50374
6180.000 17.55521
6185.000 17.53974
6190.000 17.48707
6195.000 17.45012
6200.000 17.23935
6205.000 17.22026
6210.000 17.30787
6215.000 17.33024
6220.000 17.39112
6225.000 17.39281
6230.000 17.34334
6235.000 17.22058
6240.000 17.11439
6245.000 17.12466
6250.000 17.10952
6255.000 17.00280
6260.000 16.76549
6265.000 16.58632
6270.000 16.50640
6275.000 16.15900
6280.000 15.50729
6285.000 15.65559
6290.000 16.20461
6295.000 16.34070
6300.000 16.25511
6305.000 16.16425
6310.000 16.01834
6315.000 16.03377
6320.000 16.17890
6325.000 16.28060
6330.000 16.29023
6335.000 16.22615
6340.000 16.18479
6345.000 16.01124
6350.000 15.99825
6355.000 15.95111
6360.000 15.92223
6365.000 15.83403
6370.000 15.77353
6375.000 15.72577
6380.000 15.62883
6385.000 15.62310
6390.000 15.62816
6395.000 15.62305
6400.000 15.63114
6405.000 15.54190
6410.000 15.44592
6415.000 15.40373
6420.000 15.18167
6425.000 15.23884
6430.000 15.30956
6435.000 15.31736
6440.000 15.35837
6445.000 15.22244
6450.000 15.07599
6455.000 15.08245
6460.000 15.05975
6465.000 15.10097
6470.000 14.96687
6475.000 14.77001
6480.000 14.79762
6485.000 14.74836
6490.000 14.61321
6495.000 14.65841
6500.000 14.78082
6505.000 14.68068
6510.000 14.70582
6515.000 14.56002
6520.000 14.49656
6525.000 14.37044
6530.000 14.27732
6535.000 14.29421
6540.000 14.34885
6545.000 14.22932
6550.000 13.80155
6555.000 13.11404
6560.000 12.12975
6565.000 11.99801
6570.000 13.06150
6575.000 13.78208
6580.000 14.06486
6585.000 14.05642
6590.000 13.99355
6595.000 14.01716
6600.000 14.05975
6605.000 14.12719
6610.000 13.94044
6615.000 13.84799
6620.000 13.83312
6625.000 13.84487
6630.000 13.68372
6635.000 13.62528
6640.000 13.62375
6645.000 13.61703
6650.000 13.56706
6655.000 13.56083
6660.000 13.55080
6665.000 13.47394
6670.000 13.31827
6675.000 12.81518
6680.000 12.52452
6685.000 13.08495
6690.000 13.27305
6695.000 13.24503
6700.000 13.17715
6705.000 13.21792
6710.000 13.19713
6715.000 13.10388
6720.000 13.14626
6725.000 13.08723
6730.000 12.99355
6735.000 12.91675
6740.000 12.92543
6745.000 12.89419
6750.000 12.90551
6755.000 12.83320
6760.000 12.67847
6765.000 12.72082
6770.000 12.67207
6775.000 12.67793
6780.000 12.65266
6785.000 12.60186
6790.000 12.57355
6795.000 12.57970
6800.000 12.54354
6805.000 12.53899
6810.000 12.50653
6815.000 12.45345
6820.000 12.45550
6825.000 12.39854
6830.000 12.34242
6835.000 12.24769
6840.000 12.38327
6845.000 12.35452
6850.000 12.32580
6855.000 12.29706
6860.000 12.26831
6865.000 12.23959
6870.000 12.21085
6875.000 12.18210
6880.000 12.15338
6885.000 12.12464
6890.000 12.09589
6895.000 12.06717
6900.000 12.03843
6905.000 12.00968
6910.000 11.98096
6915.000 11.95222
6920.000 11.92347
6925.000 11.89475
6930.000 11.86601
6935.000 11.83726
6940.000 11.80854
6945.000 11.77979
6950.000 11.75105
6955.000 11.72233
6960.000 11.69358
6965.000 11.66484
6970.000 11.63612
6975.000 11.57519
6980.000 11.58815
6985.000 11.47757
6990.000 11.30238
6995.000 11.32091
7000.000 11.36141
7005.000 11.31279
7010.000 11.33675
7015.000 11.32209
7020.000 11.31870
7025.000 11.20706
7030.000 11.27587
7035.000 11.28859
7040.000 11.16874
7045.000 11.22558
7050.000 11.20641
7055.000 11.13480
7060.000 10.89273
7065.000 10.42511
7070.000 10.61203
7075.000 10.96343
7080.000 10.96367
7085.000 10.89031
7090.000 10.86646
7095.000 10.93624
7100.000 10.90992
7105.000 10.83194
7110.000 10.88580
7115.000 10.91177
7120.000 10.91231
7125.000 10.84783
7130.000 10.83815
7135.000 10.83487
7140.000 10.67377
7145.000 10.66306
7150.000 10.75056
7155.000 10.72744
7160.000 10.55311
7165.000 10.39260
7170.000 10.18291
7175.000 9.98255
7180.000 9.99013
7185.000 9.84457
7190.000 9.84557
7195.000 9.92581
7200.000 9.91750
7205.000 9.98545
7210.000 10.17317
7215.000 10.25070
7220.000 10.28523
7225.000 10.16075
7230.000 10.05948
7235.000 9.88658
7240.000 9.82992
7245.000 9.86079
7250.000 9.82078
7255.000 9.77001
7260.000 9.78114
7265.000 9.72289
7270.000 9.76678
7275.000 9.54639
7280.000 9.57061
7285.000 9.65680
7290.000 9.59221
7295.000 9.65618
7300.000 9.60017
7305.000 9.48389
7310.000 9.55859
7315.000 9.45512
7320.000 9.47499
7325.000 9.61385
7330.000 9.52705
7335.000 9.52678
7340.000 9.51385
7345.000 9.45235
7350.000 9.43702
7355.000 9.44474
7360.000 9.41965
7365.000 9.41376
7370.000 9.26046
7375.000 9.27608
7380.000 9.22217
7385.000 9.18877
7390.000 9.15112
7395.000 9.19482
7400.000 9.15833
7405.000 9.03111
7410.000 8.96679
7415.000 8.94738
7420.000 8.95609
7425.000 9.04948
7430.000 9.03939
7435.000 9.02256
7440.000 9.03152
7445.000 9.00589
7450.000 9.00968
7455.000 8.98427
7460.000 8.93920
7465.000 8.92014
7470.000 8.90604
7475.000 8.86423
7480.000 8.85662
7485.000 8.79969
7490.000 8.78703
7495.000 8.79294
7500.000 8.74287
7505.000 8.71523
7510.000 8.72948
7515.000 8.68904
7520.000 8.70776
7525.000 8.66841
7530.000 8.63184
7535.000 8.60181
7540.000 8.58554
7545.000 8.56349
7550.000 8.51651
7555.000 8.49449
7560.000 8.47249
7565.000 8.45047
7570.000 8.42847
7575.000 8.40645
7580.000 8.38445
7585.000 8.36243
7590.000 8.34043
7595.000 8.31841
7600.000 8.29641
7605.000 8.27439
7610.000 8.25239
7615.000 8.23037
7620.000 8.20835
7625.000 8.18635
7630.000 8.16433
7635.000 8.14233
7640.000 8.12031
7645.000 8.09831
7650.000 8.07629
7655.000 8.05429
7660.000 8.03227
7665.000 8.01027
7670.000 7.98825
7675.000 7.96625
7680.000 7.94423
7685.000 7.92223
7690.000 7.90021
7695.000 7.87821
7700.000 7.85619
7705.000 7.83417
7710.000 7.81217
7715.000 7.79015
7720.000 7.76815
7725.000 7.74613
7730.000 7.72413
7735.000 7.70614
7740.000 7.65680
7745.000 7.64792
7750.000 7.67748
7755.000 7.64241
7760.000 7.60092
7765.000 7.58344
7770.000 7.56378
7775.000 7.53474
7780.000 7.52705
7785.000 7.52754
7790.000 7.51877
7795.000 7.48704
7800.000 7.49158
7805.000 7.48309
7810.000 7.45356
7815.000 7.41443
7820.000 7.41933
7825.000 7.39607
7830.000 7.34863
7835.000 7.32785
7840.000 7.34336
7845.000 7.31276
7850.000 7.31392
7855.000 7.29746
7860.000 7.27659
7865.000 7.22854
7870.000 7.22499
7875.000 7.20695
7880.000 7.19278
7885.000 7.17928
7890.000 7.12929
7895.000 7.09188
7900.000 7.07064
7905.000 7.06532
7910.000 7.11111
7915.000 7.08309
7920.000 7.01116
7925.000 6.97349
7930.000 6.99949
7935.000 7.00301
7940.000 6.98287
7945.000 6.97281
7950.000 6.93882
7955.000 6.95378
7960.000 6.93952
7965.000 6.90120
7970.000 6.88983
7975.000 6.87050
7980.000 6.86186
7985.000 6.84162
7990.000 6.82777
7995.000 6.82494
8000.000 6.77415
8005.000 6.79657
8010.000 6.77447
8015.000 6.76199
8020.000 6.74390
8025.000 6.74559
8030.000 6.74298
8035.000 6.73064
8040.000 6.71959
8045.000 6.71391
8050.000 6.70012
8055.000 6.68493
8060.000 6.68017
8065.000 6.67097
8070.000 6.67213
8075.000 6.66446
8080.000 6.66876
8085.000 6.64440
8090.000 6.62211
8095.000 6.57403
8100.000 6.55792
8105.000 6.55402
8110.000 6.52651
8115.000 6.50457
8120.000 6.50032
8125.000 6.49524
8130.000 6.48099
8135.000 6.44049
8140.000 6.42360
8145.000 6.38719
8150.000 6.34987
8155.000 6.29907
8160.000 6.27732
8165.000 6.22459
8170.000 6.26925
8175.000 6.28695
8180.000 6.28477
8185.000 6.33699
8190.000 6.34374
8195.000 6.33019
8200.000 6.31585
8205.000 6.32118
8210.000 6.28988
8215.000 6.24704
8220.000 6.18597
8225.000 6.11549
8230.000 6.02789
8235.000 6.10122
8240.000 6.15812
8245.000 6.16446
8250.000 6.18912
8255.000 6.14378
8260.000 6.12324
8265.000 6.09960
8270.000 6.07188
8275.000 6.03192
8280.000 6.01495
8285.000 6.00979
8290.000 5.99137
8295.000 5.97523
8300.000 5.97419
8305.000 5.95044
8310.000 5.93842
8315.000 5.92081
8320.000 5.89427
8325.000 5.87832
8330.000 5.86832
8335.000 5.83013
8340.000 5.79870
8345.000 5.80908
8350.000 5.79423
8355.000 5.77759
8360.000 5.77009
8365.000 5.76439
8370.000 5.77821
8375.000 5.78025
8380.000 5.74833
8385.000 5.72125
8390.000 5.68312
8395.000 5.64066
8400.000 5.60915
8405.000 5.57871
8410.000 5.58261
8415.000 5.60372
8420.000 5.63002
8425.000 5.65723
8430.000 5.64185
8435.000 5.60907
8440.000 5.57981
8445.000 5.56849
8450.000 5.57298
8455.000 5.52227
8460.000 5.51159
8465.000 5.49244
8470.000 5.45870
8475.000 5.42312
8480.000 5.44275
8485.000 5.44065
8490.000 5.45074
8495.000 5.42014
8500.000 5.37719
8505.000 5.39209
8510.000 5.41922
8515.000 5.40599
8520.000 5.40395
8525.000 5.40201
8530.000 5.39088
8535.000 5.37983
8540.000 5.34823
8545.000 5.32279
8550.000 5.31932
8555.000 5.32833
8560.000 5.30246
8565.000 5.29657
8570.000 5.27044
8575.000 5.23814
8580.000 5.21424
8585.000 5.18251
8590.000 5.15357
8595.000 5.11915
8600.000 5.11775
8605.000 5.13666
8610.000 5.17070
8615.000 5.18111
8620.000 5.18326
8625.000 5.19474
8630.000 5.19108
8635.000 5.17204
8640.000 5.11730
8645.000 5.10721
8650.000 5.07037
8655.000 5.02885
8660.000 5.00153
8665.000 4.95571
8670.000 4.97523
8675.000 4.99852
8680.000 5.04679
8685.000 5.07333
8690.000 5.09581
8695.000 5.10425
8700.000 5.11337
8705.000 5.12789
8710.000 5.12241
8715.000 5.12189
8720.000 5.09702
8725.000 5.04488
8730.000 4.96789
8735.000 4.91398
8740.000 4.85025
8745.000 4.78041
8750.000 4.70902
8755.000 4.73077
8760.000 4.80375
8765.000 4.86883
8770.000 4.87738
8775.000 4.88658
8780.000 4.91656
8785.000 4.92363
8790.000 4.91564
8795.000 4.90489
8800.000 4.90185
8805.000 4.89104
8810.000 4.86646
8815.000 4.86014
8820.000 4.84578
8825.000 4.82543
8830.000 4.76420
8835.000 4.67135
8840.000 4.59772
8845.000 4.53528
8850.000 4.46902
8855.000 4.42178
8860.000 4.35708
8865.000 4.40516
8870.000 4.50086
8875.000 4.59213
8880.000 4.67535
8885.000 4.75481
8890.000 4.74134
8895.000 4.72962
8900.000 4.66153
8905.000 4.76982
8910.000 4.75820
8915.000 4.66005
8920.000 4.76818
8925.000 4.71450
8930.000 4.85794
8935.000 4.82395
8940.000 4.77606
8945.000 4.73118
8950.000 4.68277
8955.000 4.62835
8960.000 4.62028
8965.000 4.50323
8970.000 4.56524
8975.000 4.55354
8980.000 4.50282
8985.000 4.42175
8990.000 4.31688
8995.000 4.34194
9000.000 4.32906
9005.000 4.25610
9010.000 4.23922
9015.000 4.21179
9020.000 4.29784
9025.000 4.35748
9030.000 4.50360
9035.000 4.60108
9040.000 4.65919
9045.000 4.68804
9050.000 4.67651
9055.000 4.59742
9060.000 4.56948
9065.000 4.52778
9070.000 4.51476
9075.000 4.51213
9080.000 4.49473
9085.000 4.49957
9090.000 4.50081
9095.000 4.51240
9100.000 4.47230
9105.000 4.48373
9110.000 4.52036
9115.000 4.54897
9120.000 4.51681
9125.000 4.46857
9130.000 4.40887
9135.000 4.37206
9140.000 4.39593
9145.000 4.39241
9150.000 4.31397
9155.000 4.27054
9160.000 4.32096
9165.000 4.33280
9170.000 4.28442
9175.000 4.22881
9180.000 4.26952
9185.000 4.26320
9190.000 4.24433
9195.000 4.20412
9200.000 4.22300
9205.000 4.19606
9210.000 4.13020
9215.000 4.04536
9220.000 4.01872
9225.000 3.96130
9230.000 3.91844
9235.000 3.93697
9240.000 4.01342
9245.000 4.06623
9250.000 4.14166
9255.000 4.14370
9260.000 4.21666
9265.000 4.26533
9270.000 4.35909
9275.000 4.38389
9280.000 4.37846
9285.000 4.37778
9290.000 4.31362
9295.000 4.23346
9300.000 4.16478
9305.000 4.07586
9310.000 4.02807
9315.000 3.93315
9320.000 3.93095
9325.000 3.88564
9330.000 3.95168
9335.000 3.88002
9340.000 3.82664
9345.000 3.77103
9350.000 3.99247
9355.000 3.83562
9360.000 3.87136
9365.000 4.02194
9370.000 3.97585
9375.000 4.04165
9380.000 4.03934
9385.000 4.14357
9390.000 4.33543
9395.000 4.42557
9400.000 4.38209
9405.000 4.25280
9410.000 4.21606
9415.000 4.20345
9420.000 4.11670
9425.000 3.98387
9430.000 3.83349
9435.000 4.03181
9440.000 3.79526
9445.000 3.79265
9450.000 3.86942
9455.000 3.77861
9460.000 3.74067
9465.000 3.83543
9470.000 3.89900
9475.000 3.88440
9480.000 3.81610
9485.000 3.92834
9490.000 3.90411
9495.000 3.70668
9500.000 3.60600
9505.000 3.78724
9510.000 3.99774
9515.000 3.81486
9520.000 3.67164
9525.000 3.59745
9530.000 3.66201
9535.000 3.59132
9540.000 3.50339
9545.000 3.32325
9550.000 3.43888
9555.000 3.43939
9560.000 3.70160
9565.000 3.66543
9570.000 3.80959
9575.000 3.85651
9580.000 3.81443
9585.000 3.74731
9590.000 3.62746
9595.000 3.63526
9600.000 3.76205
9605.000 3.72612
9610.000 3.69770
9615.000 3.67360
9620.000 3.62318
9625.000 3.63241
9630.000 3.57277
9635.000 3.58756
9640.000 3.57102
9645.000 3.59336
9650.000 3.63440
9655.000 3.63112
9660.000 3.61412
9665.000 3.60463
9670.000 3.73524
9675.000 3.71883
9680.000 3.61410
9685.000 3.65048
9690.000 3.65763
9695.000 3.67463
9700.000 3.56139
9705.000 3.57623
9710.000 3.57769
9715.000 3.61361
9720.000 3.57199
9725.000 3.51987
9730.000 3.53601
9735.000 3.48034
9740.000 3.59804
9745.000 3.47289
9750.000 3.48311
9755.000 3.45340
9760.000 3.47424
9765.000 3.49556
9770.000 3.45687
9775.000 3.48911
9780.000 3.52565
9785.000 3.48136
9790.000 3.45388
9795.000 3.38233
9800.000 3.44020
9805.000 3.40849
9810.000 3.42965
9815.000 3.34527
9820.000 3.40451
9825.000 3.34767
9830.000 3.34648
9835.000 3.34893
9840.000 3.36262
9845.000 3.35756
9850.000 3.39747
9855.000 3.42955
9860.000 3.28114
9865.000 3.37219
9870.000 3.34586
9875.000 3.29087
9880.000 3.23787
9885.000 3.26928
9890.000 3.31642
9895.000 3.19885
9900.000 3.26985
9905.000 3.28060
9910.000 3.26339
9915.000 3.24465
9920.000 3.25909
9925.000 3.20509
9930.000 3.18810
9935.000 3.17299
9940.000 3.14677
9945.000 3.13617
9950.000 3.21563
9955.000 3.22174
9960.000 3.41723
9965.000 3.19469
9970.000 3.10226
9975.000 3.24279
9980.000 3.00428
9985.000 3.10310
9990.000 3.09315
9995.000 3.14833
10000.000 3.12004
10005.000 2.96012
10010.000 3.06720
10015.000 3.05652
10020.000 3.00180
10025.000 2.92589
10030.000 2.90758
10035.000 2.87275
10040.000 2.78886
10045.000 2.83807
10050.000 2.76681
10055.000 2.82433
10060.000 2.91433
10065.000 2.75769
10070.000 2.86442
10075.000 2.82615
10080.000 3.11141
10085.000 3.17398
10090.000 2.96889
10095.000 2.97816
10100.000 3.05133
10105.000 2.96378
10110.000 2.99403
10115.000 2.89389
10120.000 2.96450
10125.000 2.81637
10130.000 2.93369
10135.000 2.85275
10140.000 2.94509
10145.000 2.93285
10150.000 2.90236
10155.000 2.86619
10160.000 2.83686
10165.000 2.82285
10170.000 2.81658
10175.000 2.80647
10180.000 2.78090
10185.000 2.73370
10190.000 2.68033
10195.000 2.64166
10200.000 2.63857
10205.000 2.68444
10210.000 2.76264
10215.000 2.84912
10220.000 2.91973
10225.000 2.95536
10230.000 2.95649
10235.000 2.92863
10240.000 2.87716
10245.000 2.80916
10250.000 2.73758
10255.000 2.67705
10260.000 2.64212
10265.000 2.64201
10270.000 2.66446
10275.000 2.69189
10280.000 2.70671
10285.000 2.69606
10290.000 2.66581
10295.000 2.62665
10300.000 2.58922
10305.000 2.59949
10310.000 2.58928
10315.000 2.58395
10320.000 2.58282
10325.000 2.58505
10330.000 2.58868
10335.000 2.59162
10340.000 2.59170
10345.000 2.58777
10350.000 2.58261
10355.000 2.57997
10360.000 2.58363
10365.000 2.59557
10370.000 2.61060
10375.000 2.62184
10380.000 2.62230
10385.000 2.60759
10390.000 2.58358
10395.000 2.55870
10400.000 2.54136
10405.000 2.53746
10410.000 2.54302
10415.000 2.55152
10420.000 2.55647
10425.000 2.55300
10430.000 2.54284
10435.000 2.52944
10440.000 2.51619
10445.000 2.50592
10450.000 2.49898
10455.000 2.49529
10460.000 2.49468
10465.000 2.49677
10470.000 2.50043
10475.000 2.50428
10480.000 2.50696
10485.000 2.50726
10490.000 2.50425
10495.000 2.49715
10500.000 2.48521
10505.000 2.46800
10510.000 2.44662
10515.000 2.42264
10520.000 2.39752
10525.000 2.37316
10530.000 2.35278
10535.000 2.33984
10540.000 2.33796
10545.000 2.34906
10550.000 2.36851
10555.000 2.39010
10560.000 2.40763
10565.000 2.41624
10570.000 2.41640
10575.000 2.40994
10580.000 2.39876
10585.000 2.38486
10590.000 2.37095
10595.000 2.36006
10600.000 2.35511
10605.000 2.35813
10610.000 2.36783
10615.000 2.38195
10620.000 2.39830
10625.000 2.36695
10630.000 2.36291
10635.000 2.35888
10640.000 2.35487
10645.000 2.35084
10650.000 2.34683
10655.000 2.34283
10660.000 2.33885
10665.000 2.33484
10670.000 2.33086
10675.000 2.32688
10680.000 2.32290
10685.000 2.31895
10690.000 2.31497
10695.000 2.31101
10700.000 2.30706
10705.000 2.30314
10710.000 2.29918
10715.000 2.29526
10720.000 2.29130
10725.000 2.28740
10730.000 2.28348
10735.000 2.27955
10740.000 2.27565
10745.000 2.27175
10750.000 2.26786
10755.000 2.26396
10760.000 2.26008
10765.000 2.25621
10770.000 2.25231
10775.000 2.24847
10780.000 2.24460
10785.000 2.24075
10790.000 2.23688
10795.000 2.23303
10800.000 2.22919
10805.000 2.22537
10810.000 2.22152
10815.000 2.21770
10820.000 2.21389
10825.000 2.21007
10830.000 2.20628
10835.000 2.20246
10840.000 2.19867
10845.000 2.19487
10850.000 2.19108
10855.000 2.18732
10860.000 2.18353
10865.000 2.17976
10870.000 2.17600
10875.000 2.17223
10880.000 2.16850
10885.000 2.16473
10890.000 2.16099
10895.000 2.15726
10900.000 2.15354
10905.000 2.14981
10910.000 2.14610
10915.000 2.14238
10920.000 2.13867
10925.000 2.13496
10930.000 2.13125
10935.000 2.12757
10940.000 2.12388
10945.000 2.12020
10950.000 2.11652
10955.000 2.11286
10960.000 2.10918
10965.000 2.10552
10970.000 2.10186
10975.000 2.09823
10980.000 2.09457
10985.000 2.09094
10990.000 2.08731
10995.000 2.08368
11000.000 2.08005
11005.000 2.07642
11010.000 2.07282
11015.000 2.06922
11020.000 2.06561
11025.000 2.06201
11030.000 2.05843
11035.000 2.05483
11040.000 2.05125
11045.000 2.04768
11050.000 2.04413
11055.000 2.04055
11060.000 2.03700
11065.000 2.03345
11070.000 2.02990
11075.000 2.02635
11080.000 2.02280
11085.000 2.01928
11090.000 2.01576
11095.000 2.01224
11100.000 2.00871
11105.000 2.00522
11110.000 2.00169
11115.000 1.99820
11120.000 1.99470
11125.000 1.99121
11130.000 1.98774
11135.000 1.98427
11140.000 1.98077
11145.000 1.97730
11150.000 1.97386
11155.000 1.97039
11160.000 1.96695
11165.000 1.96351
11170.000 1.96007
11175.000 1.95663
11180.000 1.95318
11185.000 1.94977
11190.000 1.94635
11195.000 1.94294
11200.000 1.93952
11205.000 1.93611
11210.000 1.93272
11215.000 1.92931
11220.000 1.92592
11225.000 1.92256
11230.000 1.91917
11235.000 1.91581
11240.000 1.91242
11245.000 1.90906
11250.000 1.90570
11255.000 1.90236
11260.000 1.89900
11265.000 1.89567
11270.000 1.89233
11275.000 1.88900
11280.000 1.88566
11285.000 1.88235
11290.000 1.87902
11295.000 1.87571
11300.000 1.87241
11305.000 1.86912
11310.000 1.86582
11315.000 1.86254
11320.000 1.85926
11325.000 1.85598
11330.000 1.85269
11335.000 1.84941
11340.000 1.84616
11345.000 1.84291
11350.000 1.83965
11355.000 1.83640
11360.000 1.83315
11365.000 1.82992
11370.000 1.82666
11375.000 1.82344
11380.000 1.82024
11385.000 1.81701
11390.000 1.81378
11395.000 1.81058
11400.000 1.80738
11405.000 1.80418
11410.000 1.80098
11415.000 1.79781
11420.000 1.79464
11425.000 1.79144
11430.000 1.78827
11435.000 1.78512
11440.000 1.78195
11445.000 1.77880
11450.000 1.77563
11455.000 1.77248
11460.000 1.76936
11465.000 1.76621
11470.000 1.76310
11475.000 1.75995
11480.000 1.75683
11485.000 1.75371
11490.000 1.75062
11495.000 1.74750
11500.000 1.74441
11505.000 1.74131
11510.000 1.73822
11515.000 1.73513
11520.000 1.73204
11525.000 1.72897
11530.000 1.72591
11535.000 1.72284
11540.000 1.71978
11545.000 1.71671
11550.000 1.71367
11555.000 1.71063
11560.000 1.70759
11565.000 1.70456
11570.000 1.70152
11575.000 1.69850
11580.000 1.69547
11585.000 1.69245
11590.000 1.68944
11595.000 1.68643
11600.000 1.68345
11605.000 1.68043
11610.000 1.67745
11615.000 1.67446
11620.000 1.67148
11625.000 1.66852
11630.000 1.66554
11635.000 1.66258
11640.000 1.65962
11645.000 1.65666
11650.000 1.65371
11655.000 1.65077
11660.000 1.64782
11665.000 1.64489
11670.000 1.64195
11675.000 1.63902
11680.000 1.63612
11685.000 1.63319
11690.000 1.63028
11695.000 1.62738
11700.000 1.62448
11705.000 1.62157
11710.000 1.61869
11715.000 1.61579
11720.000 1.61291
11725.000 1.61004
11730.000 1.60716
11735.000 1.60431
11740.000 1.60143
11745.000 1.59858
11750.000 1.59573
11755.000 1.59288
11760.000 1.59003
11765.000 1.58721
11770.000 1.58436
11775.000 1.58153
11780.000 1.57871
11785.000 1.57588
11790.000 1.57309
11795.000 1.57026
11800.000 1.56747
11805.000 1.56467
11810.000 1.56187
11815.000 1.55908
11820.000 1.55631
11825.000 1.55354
11830.000 1.55074
11835.000 1.54797
11840.000 1.54523
11845.000 1.54246
11850.000 1.53969
11855.000 1.53695
11860.000 1.53420
11865.000 1.53146
11870.000 1.52872
11875.000 1.52600
11880.000 1.52326
11885.000 1.52054
11890.000 1.51783
11895.000 1.51511
11900.000 1.51242
11905.000 1.50971
11910.000 1.50702
11915.000 1.50433
11920.000 1.50164
11925.000 1.49895
11930.000 1.49626
11935.000 1.49360
11940.000 1.49091
11945.000 1.48825
11950.000 1.48559
11955.000 1.48295
11960.000 1.48029
11965.000 1.47765
11970.000 1.47502
11975.000 1.47238
11980.000 1.46975
11985.000 1.46711
11990.000 1.46450
11995.000 1.46187
12000.000 1.45926
12005.000 1.45665
12010.000 1.45404
12015.000 1.45146
12020.000 1.44885
12025.000 1.44627
12030.000 1.44369
12035.000 1.44111
12040.000 1.43853
12045.000 1.43597
12050.000 1.43339
12055.000 1.43084
12060.000 1.42828
12065.000 1.42573
12070.000 1.42317
12075.000 1.42065
12080.000 1.41809
12085.000 1.41556
12090.000 1.41304
12095.000 1.41051
12100.000 1.40801
12105.000 1.40548
12110.000 1.40298
12115.000 1.40048
12120.000 1.39798
12125.000 1.39548
12130.000 1.39298
12135.000 1.39050
12140.000 1.38803
12145.000 1.38555
12150.000 1.38308
12155.000 1.38061
12160.000 1.37813
12165.000 1.37569
12170.000 1.37324
12175.000 1.37076
12180.000 1.36834
12185.000 1.36590
12190.000 1.36345
12195.000 1.36103
12200.000 1.35861
12205.000 1.35619
12210.000 1.35377
12215.000 1.35135
12220.000 1.34893
12225.000 1.34654
12230.000 1.34414
12235.000 1.34175
12240.000 1.33936
12245.000 1.33696
12250.000 1.33460
12255.000 1.33220
12260.000 1.32984
12265.000 1.32747
12270.000 1.32510
12275.000 1.32277
12280.000 1.32040
12285.000 1.31806
12290.000 1.31569
12295.000 1.31335
12300.000 1.31104
12305.000 1.30870
12310.000 1.30636
12315.000 1.30405
12320.000 1.30174
12325.000 1.29942
12330.000 1.29711
12335.000 1.29480
12340.000 1.29251
12345.000 1.29020
12350.000 1.28792
12355.000 1.28563
12360.000 1.28334
12365.000 1.28109
12370.000 1.27880
12375.000 1.27654
12380.000 1.27426
12385.000 1.27200
12390.000 1.26976
12395.000 1.26751
12400.000 1.26525
12405.000 1.26301
12410.000 1.26078
12415.000 1.25855
12420.000 1.25632
12425.000 1.25409
12430.000 1.25186
12435.000 1.24965
12440.000 1.24745
12445.000 1.24524
12450.000 1.24304
12455.000 1.24083
12460.000 1.23863
12465.000 1.23645
12470.000 1.23424
12475.000 1.23206
12480.000 1.22989
12485.000 1.22773
12490.000 1.22556
12495.000 1.22338
12500.000 1.22123
12505.000 1.21908
12510.000 1.21692
12515.000 1.21477
12520.000 1.21262
12525.000 1.21050
12530.000 1.20835
12535.000 1.20622
12540.000 1.20410
12545.000 1.20197
12550.000 1.19985
12555.000 1.19775
12560.000 1.19563
12565.000 1.19353
12570.000 1.19143
12575.000 1.18934
12580.000 1.18724
12585.000 1.18514
12590.000 1.18307
12595.000 1.18100
12600.000 1.17890
12605.000 1.17683
12610.000 1.17479
12615.000 1.17272
12620.000 1.17065
12625.000 1.16860
12630.000 1.16656
12635.000 1.16449
12640.000 1.16244
12645.000 1.16043
12650.000 1.15838
12655.000 1.15637
12660.000 1.15432
12665.000 1.15231
12670.000 1.15029
12675.000 1.14827
12680.000 1.14626
12685.000 1.14427
12690.000 1.14225
12695.000 1.14026
12700.000 1.13827
12705.000 1.13628
12710.000 1.13429
12715.000 1.13230
12720.000 1.13034
12725.000 1.12837
12730.000 1.12638
12735.000 1.12442
12740.000 1.12246
12745.000 1.12052
12750.000 1.11856
12755.000 1.11660
12760.000 1.11466
12765.000 1.11272
12770.000 1.11079
12775.000 1.10885
12780.000 1.10692
12785.000 1.10501
12790.000 1.10307
12795.000 1.10116
12800.000 1.09925
12805.000 1.09734
12810.000 1.09543
12815.000 1.09352
12820.000 1.09164
12825.000 1.08973
12830.000 1.08785
12835.000 1.08597
12840.000 1.08409
12845.000 1.08220
12850.000 1.08035
12855.000 1.07847
12860.000 1.07661
12865.000 1.07473
12870.000 1.07287
12875.000 1.07102
12880.000 1.06919
12885.000 1.06733
12890.000 1.06548
12895.000 1.06365
12900.000 1.06182
12905.000 1.05999
12910.000 1.05816
12915.000 1.05634
12920.000 1.05451
12925.000 1.05271
12930.000 1.05090
12935.000 1.04907
12940.000 1.04727
12945.000 1.04547
12950.000 1.04370
12955.000 1.04190
12960.000 1.04009
12965.000 1.03832
12970.000 1.03654
12975.000 1.03477
12980.000 1.03299
12985.000 1.03122
12990.000 1.02944
12995.000 1.02770
13000.000 1.02592
13005.000 1.02417
13010.000 1.02243
13015.000 1.02068
13020.000 1.01893
13025.000 1.01718
13030.000 1.01546
13035.000 1.01374
13040.000 1.01199
13045.000 1.01027
13050.000 1.00855
13055.000 1.00683
13060.000 1.00514
13065.000 1.00342
13070.000 1.00169
13075.000 1.00000
13080.000 0.99831
13085.000 0.99661
13090.000 0.99492
13095.000 0.99322
13100.000 0.99156
13105.000 0.98986
13110.000 0.98820
13115.000 0.98653
13120.000 0.98486
13125.000 0.98319
13130.000 0.98153
13135.000 0.97986
13140.000 0.97822
13145.000 0.97655
13150.000 0.97491
13155.000 0.97327
13160.000 0.97163
13165.000 0.96999
13170.000 0.96835
13175.000 0.96671
13180.000 0.96510
13185.000 0.96348
13190.000 0.96184
13195.000 0.96023
13200.000 0.95862
13205.000 0.95703
13210.000 0.95542
13215.000 0.95380
13220.000 0.95222
13225.000 0.95063
13230.000 0.94902
13235.000 0.94743
13240.000 0.94587
13245.000 0.94428
13250.000 0.94270
13255.000 0.94114
13260.000 0.93955
13265.000 0.93799
13270.000 0.93643
13275.000 0.93487
13280.000 0.93331
13285.000 0.93175
13290.000 0.93022
13295.000 0.92866
13300.000 0.92713
13305.000 0.92559
13310.000 0.92406
13315.000 0.92253
13320.000 0.92100
13325.000 0.91946
13330.000 0.91796
13335.000 0.91642
13340.000 0.91492
13345.000 0.91341
13350.000 0.91191
13355.000 0.91040
13360.000 0.90890
13365.000 0.90739
13370.000 0.90588
13375.000 0.90440
13380.000 0.90293
13385.000 0.90145
13390.000 0.89994
13395.000 0.89849
13400.000 0.89701
13405.000 0.89553
13410.000 0.89405
13415.000 0.89260
13420.000 0.89115
13425.000 0.88970
13430.000 0.88822
13435.000 0.88679
13440.000 0.88534
13445.000 0.88389
13450.000 0.88244
13455.000 0.88101
13460.000 0.87958
13465.000 0.87813
13470.000 0.87671
13475.000 0.87528
13480.000 0.87386
13485.000 0.87246
13490.000 0.87103
13495.000 0.86964
13500.000 0.86821
13505.000 0.86681
13510.000 0.86541
13515.000 0.86402
13520.000 0.86262
13525.000 0.86122
13530.000 0.85985
13535.000 0.85845
13540.000 0.85708
13545.000 0.85568
13550.000 0.85431
13555.000 0.85294
13560.000 0.85157
13565.000 0.85019
13570.000 0.84885
13575.000 0.84748
13580.000 0.84613
13585.000 0.84476
13590.000 0.84342
13595.000 0.84207
13600.000 0.84073
13605.000 0.83938
13610.000 0.83804
13615.000 0.83672
13620.000 0.83538
13625.000 0.83406
13630.000 0.83274
13635.000 0.83140
13640.000 0.83008
13645.000 0.82876
13650.000 0.82747
13655.000 0.82615
13660.000 0.82484
13665.000 0.82355
13670.000 0.82223
13675.000 0.82094
13680.000 0.81965
13685.000 0.81836
13690.000 0.81706
13695.000 0.81577
13700.000 0.81451
13705.000 0.81322
13710.000 0.81193
13715.000 0.81066
13720.000 0.80940
13725.000 0.80814
13730.000 0.80687
13735.000 0.80561
13740.000 0.80435
13745.000 0.80308
13750.000 0.80184
13755.000 0.80058
13760.000 0.79934
13765.000 0.79811
13770.000 0.79687
13775.000 0.79563
13780.000 0.79440
13785.000 0.79316
13790.000 0.79192
13795.000 0.79071
13800.000 0.78948
13805.000 0.78827
13810.000 0.78703
13815.000 0.78582
13820.000 0.78461
13825.000 0.78340
13830.000 0.78221
13835.000 0.78100
13840.000 0.77979
13845.000 0.77861
13850.000 0.77740
13855.000 0.77622
13860.000 0.77503
13865.000 0.77385
13870.000 0.77267
13875.000 0.77149
13880.000 0.77030
13885.000 0.76915
13890.000 0.76796
13895.000 0.76681
13900.000 0.76562
13905.000 0.76447
13910.000 0.76331
13915.000 0.76215
13920.000 0.76100
13925.000 0.75984
13930.000 0.75869
13935.000 0.75756
13940.000 0.75640
13945.000 0.75527
13950.000 0.75414
13955.000 0.75301
13960.000 0.75186
13965.000 0.75073
13970.000 0.74962
13975.000 0.74849
13980.000 0.74736
13985.000 0.74626
13990.000 0.74513
13995.000 0.74403
14000.000 0.74290
14005.000 0.74180
14010.000 0.74070
14015.000 0.73959
14020.000 0.73849
14025.000 0.73742
14030.000 0.73631
14035.000 0.73521
14040.000 0.73413
14045.000 0.73306
14050.000 0.73196
14055.000 0.73088
14060.000 0.72981
14065.000 0.72873
14070.000 0.72765
14075.000 0.72661
14080.000 0.72553
14085.000 0.72445
14090.000 0.72341
14095.000 0.72233
14100.000 0.72128
14105.000 0.72023
14110.000 0.71918
14115.000 0.71813
14120.000 0.71709
14125.000 0.71604
14130.000 0.71502
14135.000 0.71397
14140.000 0.71292
14145.000 0.71190
14150.000 0.71087
14155.000 0.70985
14160.000 0.70880
14165.000 0.70778
14170.000 0.70676
14175.000 0.70577
14180.000 0.70474
14185.000 0.70372
14190.000 0.70273
14195.000 0.70170
14200.000 0.70071
14205.000 0.69971
14210.000 0.69869
14215.000 0.69770
14220.000 0.69670
14225.000 0.69571
14230.000 0.69474
14235.000 0.69375
14240.000 0.69275
14245.000 0.69178
14250.000 0.69079
14255.000 0.68982
14260.000 0.68885
14265.000 0.68788
14270.000 0.68692
14275.000 0.68595
14280.000 0.68498
14285.000 0.68401
14290.000 0.68304
14295.000 0.68210
14300.000 0.68113
14305.000 0.67468
14310.000 0.66766
14315.000 0.66126
14320.000 0.65787
14325.000 0.65954
14330.000 0.66487
14335.000 0.67223
14340.000 0.67858
14345.000 0.68127
14350.000 0.67933
14355.000 0.67395
14360.000 0.66750
14365.000 0.66223
14370.000 0.65962
14375.000 0.65992
14380.000 0.66226
14385.000 0.66505
14390.000 0.66667
14395.000 0.66618
14400.000 0.66376
14405.000 0.66062
14410.000 0.65820
14415.000 0.65755
14420.000 0.65884
14425.000 0.66110
14430.000 0.66285
14435.000 0.66177
14440.000 0.65790
14445.000 0.65185
14450.000 0.64572
14455.000 0.64166
14460.000 0.64109
14465.000 0.64440
14470.000 0.65053
14475.000 0.65709
14480.000 0.66097
14485.000 0.65978
14490.000 0.65344
14495.000 0.64413
14500.000 0.62531
14505.000 0.61383
14510.000 0.61076
14515.000 0.61630
14520.000 0.62824
14525.000 0.64225
14530.000 0.65325
14535.000 0.65755
14540.000 0.65483
14545.000 0.64760
14550.000 0.63924
14555.000 0.63311
14560.000 0.63042
14565.000 0.63123
14570.000 0.63424
14575.000 0.63768
14580.000 0.63991
14585.000 0.63994
14590.000 0.63771
14595.000 0.63383
14600.000 0.62940
14605.000 0.62555
14610.000 0.62321
14615.000 0.62281
14620.000 0.62421
14625.000 0.62671
14630.000 0.62915
14635.000 0.63036
14640.000 0.62942
14645.000 0.62622
14650.000 0.62165
14655.000 0.61719
14660.000 0.61442
14665.000 0.61415
14670.000 0.61539
14675.000 0.61676
14680.000 0.61619
14685.000 0.61203
14690.000 0.60350
14695.000 0.59127
14700.000 0.57753
14705.000 0.56569
14710.000 0.55902
14715.000 0.55935
14720.000 0.56647
14725.000 0.57828
14730.000 0.59148
14735.000 0.60312
14740.000 0.61116
14745.000 0.61466
14750.000 0.61404
14755.000 0.61060
14760.000 0.60608
14765.000 0.60208
14770.000 0.59952
14775.000 0.59831
14780.000 0.59826
14785.000 0.59847
14790.000 0.59861
14795.000 0.59850
14800.000 0.59828
14805.000 0.59823
14810.000 0.59853
14815.000 0.59914
14820.000 0.59974
14825.000 0.59971
14830.000 0.59853
14835.000 0.59568
14840.000 0.59105
14845.000 0.58487
14850.000 0.57782
14855.000 0.57099
14860.000 0.56545
14865.000 0.56209
14870.000 0.56131
14875.000 0.56290
14880.000 0.56628
14885.000 0.57059
14890.000 0.57492
14895.000 0.57874
14900.000 0.58156
14905.000 0.58366
14910.000 0.58511
14915.000 0.58610
14920.000 0.58672
14925.000 0.58691
14930.000 0.58656
14935.000 0.58559
14940.000 0.58403
14945.000 0.58204
14950.000 0.57984
14955.000 0.57769
14960.000 0.57575
14965.000 0.57414
14970.000 0.57287
14975.000 0.57209
14980.000 0.57185
14985.000 0.57220
14990.000 0.57314
14995.000 0.57446
15000.000 0.57586
15005.000 0.57677
15010.000 0.57666
15015.000 0.57537
15020.000 0.57258
15025.000 0.56908
15030.000 0.56545
15035.000 0.56244
15040.000 0.56056
15045.000 0.56002
15050.000 0.56069
15055.000 0.56206
15060.000 0.56357
15065.000 0.56467
15070.000 0.56497
15075.000 0.56443
15080.000 0.56317
15085.000 0.56144
15090.000 0.55951
15095.000 0.55757
15100.000 0.55582
15105.000 0.55440
15110.000 0.55346
15115.000 0.55324
15120.000 0.55367
15125.000 0.55459
15130.000 0.55558
15135.000 0.55628
15140.000 0.55612
15145.000 0.55459
15150.000 0.55198
15155.000 0.54994
15160.000 0.54173
15165.000 0.53246
15170.000 0.52606
15175.000 0.52337
15180.000 0.52436
15185.000 0.52829
15190.000 0.53364
15195.000 0.53886
15200.000 0.54305
15205.000 0.54604
15210.000 0.54803
15215.000 0.54891
15220.000 0.54832
15225.000 0.54644
15230.000 0.54348
15235.000 0.53966
15240.000 0.53547
15245.000 0.53162
15250.000 0.52867
15255.000 0.52689
15260.000 0.52641
15265.000 0.52724
15270.000 0.52875
15275.000 0.52998
15280.000 0.53117
15285.000 0.53243
15290.000 0.53391
15295.000 0.53555
15300.000 0.53681
15305.000 0.53676
15310.000 0.53501
15315.000 0.53219
15320.000 0.52888
15325.000 0.52608
15330.000 0.52450
15335.000 0.52447
15340.000 0.52600
15345.000 0.52842
15350.000 0.53068
15355.000 0.53130
15360.000 0.52996
15365.000 0.52746
15370.000 0.52514
15375.000 0.52415
15380.000 0.52495
15385.000 0.52719
15390.000 0.52985
15395.000 0.53149
15400.000 0.53154
15405.000 0.52883
15410.000 0.52380
15415.000 0.51761
15420.000 0.51191
15425.000 0.50809
15430.000 0.50688
15435.000 0.50823
15440.000 0.51119
15445.000 0.51457
15450.000 0.51740
15455.000 0.51898
15460.000 0.51917
15465.000 0.51823
15470.000 0.51678
15475.000 0.51530
15480.000 0.51439
15485.000 0.51428
15490.000 0.51487
15495.000 0.51589
15500.000 0.51710
15505.000 0.51794
15510.000 0.51756
15515.000 0.51573
15520.000 0.51242
15525.000 0.50788
15530.000 0.50325
15535.000 0.49933
15540.000 0.49691
15545.000 0.49642
15550.000 0.49796
15555.000 0.50091
15560.000 0.50401
15565.000 0.50605
15570.000 0.50637
15575.000 0.50497
15580.000 0.50272
15585.000 0.50091
15590.000 0.50070
15595.000 0.50250
15600.000 0.50584
15605.000 0.50941
15610.000 0.51159
15615.000 0.51124
15620.000 0.50804
15625.000 0.50282
15630.000 0.49718
15635.000 0.49290
15640.000 0.49140
15645.000 0.49295
15650.000 0.49672
15655.000 0.50124
15660.000 0.50454
15665.000 0.50527
15670.000 0.50288
15675.000 0.49833
15680.000 0.49309
15685.000 0.48844
15690.000 0.48500
15695.000 0.48247
15700.000 0.48007
15705.000 0.47704
15710.000 0.47332
15715.000 0.46969
15720.000 0.46709
15725.000 0.46628
15730.000 0.46816
15735.000 0.47341
15740.000 0.48118
15745.000 0.49099
15750.000 0.49887
15755.000 0.49597
15760.000 0.49621
15765.000 0.49142
15770.000 0.48790
15775.000 0.48416
15780.000 0.48325
15785.000 0.48110
15790.000 0.48042
15795.000 0.48451
15800.000 0.48634
15805.000 0.48849
15810.000 0.48785
15815.000 0.48467
15820.000 0.48551
15825.000 0.48354
15830.000 0.48217
15835.000 0.48397
15840.000 0.48462
15845.000 0.48322
15850.000 0.47954
15855.000 0.47561
15860.000 0.47238
15865.000 0.47026
15870.000 0.46518
15875.000 0.46520
15880.000 0.46561
15885.000 0.46432
15890.000 0.46658
15895.000 0.46606
15900.000 0.46765
15905.000 0.46905
15910.000 0.47117
15915.000 0.47050
15920.000 0.46781
15925.000 0.46668
15930.000 0.46695
15935.000 0.46727
15940.000 0.46727
15945.000 0.46571
15950.000 0.46402
15955.000 0.46106
15960.000 0.46297
15965.000 0.46456
15970.000 0.46450
15975.000 0.46736
15980.000 0.47053
15985.000 0.47061
15990.000 0.47066
15995.000 0.46658
16000.000 0.46147
16005.000 0.45515
16010.000 0.45318
16015.000 0.44875
16020.000 0.44713
16025.000 0.45111
16030.000 0.45329
16035.000 0.45749
16040.000 0.46055
16045.000 0.46184
16050.000 0.46300
16055.000 0.46219
16060.000 0.45716
16065.000 0.45297
16070.000 0.44888
16075.000 0.44200
16080.000 0.43670
16085.000 0.43251
16090.000 0.43038
16095.000 0.42877
16100.000 0.42877
16105.000 0.42702
16110.000 0.42831
16115.000 0.43092
16120.000 0.43436
16125.000 0.44087
16130.000 0.44073
16135.000 0.44012
16140.000 0.43783
16145.000 0.43928
16150.000 0.43866
16155.000 0.43627
16160.000 0.43622
16165.000 0.43834
16170.000 0.44098
16175.000 0.44135
16180.000 0.43837
16185.000 0.43826
16190.000 0.43662
16195.000 0.43229
16200.000 0.43460
16205.000 0.43646
16210.000 0.43536
16215.000 0.43745
16220.000 0.43726
16225.000 0.43632
16230.000 0.43864
16235.000 0.43374
16240.000 0.43191
16245.000 0.42909
16250.000 0.42721
16255.000 0.42680
16260.000 0.42732
16265.000 0.42987
16270.000 0.42844
16275.000 0.43138
16280.000 0.43057
16285.000 0.43245
16290.000 0.43202
16295.000 0.42952
16300.000 0.42871
16305.000 0.43030
16310.000 0.43331
16315.000 0.43530
16320.000 0.43511
16325.000 0.43103
16330.000 0.43162
16335.000 0.42828
16340.000 0.42616
16345.000 0.42422
16350.000 0.42121
16355.000 0.42422
16360.000 0.42982
16365.000 0.43307
16370.000 0.43355
16375.000 0.43025
16380.000 0.42640
16385.000 0.42081
16390.000 0.41376
16395.000 0.40758
16400.000 0.40344
16405.000 0.40215
16410.000 0.40381
16415.000 0.39026
16420.000 0.40061
16425.000 0.41005
16430.000 0.41659
16435.000 0.41928
16440.000 0.41863
16445.000 0.41616
16450.000 0.41379
16455.000 0.41306
16460.000 0.41468
16465.000 0.41815
16470.000 0.42191
16475.000 0.42425
16480.000 0.42403
16485.000 0.42126
16490.000 0.41589
16495.000 0.41016
16500.000 0.40564
16505.000 0.40354
16510.000 0.40427
16515.000 0.40723
16520.000 0.41107
16525.000 0.41422
16530.000 0.41551
16535.000 0.41462
16540.000 0.41207
16545.000 0.40900
16550.000 0.40674
16555.000 0.40626
16560.000 0.40771
16565.000 0.41045
16570.000 0.41339
16575.000 0.41516
16580.000 0.41476
16585.000 0.41191
16590.000 0.40726
16595.000 0.40220
16600.000 0.39838
16605.000 0.39712
16610.000 0.39903
16615.000 0.40352
16620.000 0.40916
16625.000 0.41392
16630.000 0.41659
16635.000 0.41548
16640.000 0.40986
16645.000 0.40204
16650.000 0.39327
16655.000 0.38590
16660.000 0.38190
16665.000 0.38225
16670.000 0.38666
16675.000 0.39365
16680.000 0.40120
16685.000 0.40731
16690.000 0.41056
16695.000 0.41045
16700.000 0.40742
16705.000 0.40247
16710.000 0.39706
16715.000 0.39225
16720.000 0.38910
16725.000 0.38824
16730.000 0.38943
16735.000 0.39174
16740.000 0.39421
16745.000 0.39599
16750.000 0.39650
16755.000 0.39561
16760.000 0.39349
16765.000 0.39069
16770.000 0.38728
16775.000 0.38330
16780.000 0.37902
16785.000 0.37464
16790.000 0.37042
16795.000 0.36652
16800.000 0.36321
16805.000 0.36076
16810.000 0.35942
16815.000 0.35936
16820.000 0.36063
16825.000 0.36313
16830.000 0.36660
16835.000 0.37071
16840.000 0.37509
16845.000 0.37937
16850.000 0.38327
16855.000 0.38633
16860.000 0.38840
16865.000 0.38953
16870.000 0.38972
16875.000 0.38894
16880.000 0.38719
16885.000 0.38472
16890.000 0.38187
16895.000 0.37913
16900.000 0.37698
16905.000 0.37593
16910.000 0.37612
16915.000 0.37716
16920.000 0.37856
16925.000 0.37980
16930.000 0.38061
16935.000 0.38034
16940.000 0.37910
16945.000 0.37738
16950.000 0.37550
16955.000 0.37410
16960.000 0.37351
16965.000 0.37394
16970.000 0.37507
16975.000 0.37644
16980.000 0.37730
16985.000 0.37708
16990.000 0.37544
16995.000 0.37251
17000.000 0.36891
17005.000 0.36555
17010.000 0.36334
17015.000 0.36302
17020.000 0.36477
17025.000 0.36813
17030.000 0.37224
17035.000 0.37595
17040.000 0.37819
17045.000 0.37821
17050.000 0.37595
17055.000 0.37187
17060.000 0.36695
17065.000 0.36240
17070.000 0.35939
17075.000 0.35861
17080.000 0.36009
17085.000 0.36332
17090.000 0.36716
17095.000 0.37044
17100.000 0.37216
17105.000 0.37179
17110.000 0.36937
17115.000 0.36549
17120.000 0.36122
17125.000 0.35764
17130.000 0.35563
17135.000 0.35560
17140.000 0.35748
17145.000 0.36057
17150.000 0.36402
17155.000 0.36684
17160.000 0.36837
17165.000 0.36829
17170.000 0.36670
17175.000 0.36404
17180.000 0.36095
17185.000 0.35807
17190.000 0.35592
17195.000 0.35466
17200.000 0.35420
17205.000 0.35436
17210.000 0.35479
17215.000 0.35520
17220.000 0.35541
17225.000 0.35546
17230.000 0.35544
17235.000 0.35544
17240.000 0.35557
17245.000 0.35579
17250.000 0.35589
17255.000 0.35571
17260.000 0.35501
17265.000 0.35372
17270.000 0.35194
17275.000 0.34998
17280.000 0.34823
17285.000 0.34718
17290.000 0.34707
17295.000 0.34799
17300.000 0.34963
17305.000 0.35124
17310.000 0.35208
17315.000 0.35154
17320.000 0.34931
17325.000 0.34525
17330.000 0.33971
17335.000 0.33315
17340.000 0.32626
17345.000 0.31959
17350.000 0.31376
17355.000 0.30924
17360.000 0.30642
17365.000 0.30529
17370.000 0.30574
17375.000 0.30765
17380.000 0.31085
17385.000 0.31518
17390.000 0.32045
17395.000 0.32645
17400.000 0.33271
17405.000 0.33868
17410.000 0.34369
17415.000 0.34732
17420.000 0.34955
17425.000 0.34995
17430.000 0.34845
17435.000 0.34535
17440.000 0.34127
17445.000 0.33704
17450.000 0.33352
17455.000 0.33145
17460.000 0.33129
17465.000 0.33277
17470.000 0.33497
17475.000 0.33729
17480.000 0.33901
17485.000 0.33971
17490.000 0.33917
17495.000 0.33761
17500.000 0.33546
17505.000 0.33331
17510.000 0.33172
17515.000 0.33107
17520.000 0.33145
17525.000 0.33258
17530.000 0.33406
17535.000 0.33524
17540.000 0.33570
17545.000 0.33511
17550.000 0.33344
17555.000 0.33099
17560.000 0.32822
17565.000 0.32578
17570.000 0.32400
17575.000 0.32322
17580.000 0.32384
17585.000 0.32516
17590.000 0.32685
17595.000 0.32855
17600.000 0.32984
17605.000 0.33054
17610.000 0.33062
17615.000 0.33021
17620.000 0.32954
17625.000 0.32882
17630.000 0.32809
17635.000 0.32742
17640.000 0.32661
17645.000 0.32559
17650.000 0.32419
17655.000 0.32244
17660.000 0.32053
17665.000 0.31879
17670.000 0.31758
17675.000 0.31725
17680.000 0.31795
17685.000 0.31959
17690.000 0.32182
17695.000 0.32414
17700.000 0.32594
17705.000 0.32675
17710.000 0.32626
17715.000 0.32451
17720.000 0.32185
17725.000 0.31879
17730.000 0.31604
17735.000 0.31424
17740.000 0.31349
17745.000 0.31413
17750.000 0.31594
17755.000 0.31793
17760.000 0.31959
17765.000 0.32035
17770.000 0.31983
17775.000 0.31809
17780.000 0.31553
17785.000 0.31282
17790.000 0.31069
17795.000 0.30975
17800.000 0.31034
17805.000 0.31233
17810.000 0.31518
17815.000 0.31811
17820.000 0.32021
17825.000 0.32075
17830.000 0.31927
17835.000 0.31577
17840.000 0.31093
17845.000 0.30542
17850.000 0.30058
17855.000 0.30012
17860.000 0.30179
17865.000 0.30316
17870.000 0.30448
17875.000 0.30644
17880.000 0.30865
17885.000 0.31061
17890.000 0.31204
17895.000 0.31257
17900.000 0.31222
17905.000 0.31101
17910.000 0.30927
17915.000 0.30733
17920.000 0.30558
17925.000 0.30416
17930.000 0.30330
17935.000 0.30300
17940.000 0.30324
17945.000 0.30392
17950.000 0.30483
17955.000 0.30577
17960.000 0.30660
17965.000 0.30714
17970.000 0.30728
17975.000 0.30695
17980.000 0.30620
17985.000 0.30507
17990.000 0.30367
17995.000 0.30211
18000.000 0.30055
18005.000 0.29913
18010.000 0.29805
18015.000 0.29738
18020.000 0.29719
18025.000 0.29743
18030.000 0.29803
18035.000 0.29886
18040.000 0.29972
18045.000 0.30042
18050.000 0.30085
18055.000 0.30093
18060.000 0.30069
18065.000 0.30023
18070.000 0.29975
18075.000 0.29937
18080.000 0.29926
18085.000 0.29940
18090.000 0.29972
18095.000 0.29999
18100.000 0.29994
18105.000 0.29926
18110.000 0.29781
18115.000 0.29561
18120.000 0.29289
18125.000 0.29009
18130.000 0.28778
18135.000 0.28652
18140.000 0.28671
18145.000 0.28853
18150.000 0.29190
18155.000 0.29636
18160.000 0.30112
18165.000 0.30504
18170.000 0.30690
18175.000 0.30556
18180.000 0.30042
18185.000 0.29187
18190.000 0.28133
18195.000 0.27068
18200.000 0.26183
18205.000 0.25610
18210.000 0.25425
18215.000 0.25656
18220.000 0.26296
18225.000 0.27280
18230.000 0.28474
18235.000 0.29665
18240.000 0.30620
18245.000 0.31150
18250.000 0.31155
18255.000 0.30660
18260.000 0.29786
18265.000 0.28695
18270.000 0.27651
18275.000 0.26858
18280.000 0.26374
18285.000 0.26272
18290.000 0.26552
18295.000 0.27146
18300.000 0.27953
18305.000 0.28810
18310.000 0.29531
18315.000 0.29934
18320.000 0.29913
18325.000 0.29475
18330.000 0.28743
18335.000 0.27918
18340.000 0.27208
18345.000 0.26767
18350.000 0.26667
18355.000 0.26893
18360.000 0.27342
18365.000 0.27837
18370.000 0.28170
18375.000 0.28143
18380.000 0.27676
18385.000 0.26837
18390.000 0.25812
18395.000 0.24820
18400.000 0.24037
18405.000 0.23602
18410.000 0.23621
18415.000 0.24174
18420.000 0.25269
18425.000 0.26775
18430.000 0.28426
18435.000 0.29862
18440.000 0.30722
18445.000 0.30902
18450.000 0.30311
18455.000 0.28759
18460.000 0.26799
18465.000 0.24890
18470.000 0.23274
18475.000 0.22187
18480.000 0.21695
18485.000 0.21787
18490.000 0.22427
18495.000 0.23575
18500.000 0.25099
18505.000 0.26767
18510.000 0.28238
18515.000 0.29198
18520.000 0.29515
18525.000 0.29246
18530.000 0.28579
18535.000 0.27740
18540.000 0.26933
18545.000 0.26304
18550.000 0.25925
18555.000 0.25807
18560.000 0.25912
18565.000 0.26164
18570.000 0.26463
18575.000 0.26705
18580.000 0.26802
18585.000 0.26710
18590.000 0.26452
18595.000 0.26094
18600.000 0.25726
18605.000 0.25446
18610.000 0.25333
18615.000 0.25441
18620.000 0.25780
18625.000 0.26320
18630.000 0.27003
18635.000 0.27737
18640.000 0.28364
18645.000 0.28802
18650.000 0.28993
18655.000 0.28861
18660.000 0.28377
18665.000 0.27536
18670.000 0.26353
18675.000 0.24890
18680.000 0.23274
18685.000 0.21711
18690.000 0.20477
18695.000 0.19829
18700.000 0.19848
18705.000 0.20364
18710.000 0.20964
18715.000 0.21230
18720.000 0.21023
18725.000 0.20507
18730.000 0.19958
18735.000 0.19455
18740.000 0.18915
18745.000 0.18207
18750.000 0.17406
18755.000 0.16812
18760.000 0.16852
18765.000 0.17780
18770.000 0.19469
18775.000 0.21534
18780.000 0.23569
18785.000 0.25328
18790.000 0.26681
18795.000 0.27590
18800.000 0.28052
18805.000 0.28084
18810.000 0.27729
18815.000 0.27073
18820.000 0.26218
18825.000 0.25309
18830.000 0.24521
18835.000 0.23932
18840.000 0.23596
18845.000 0.23572
18850.000 0.23857
18855.000 0.24422
18860.000 0.25191
18865.000 0.26049
18870.000 0.26829
18875.000 0.27364
18880.000 0.27503
18885.000 0.27170
18890.000 0.26388
18895.000 0.25282
18900.000 0.24067
18905.000 0.22954
18910.000 0.22112
18915.000 0.21633
18920.000 0.21561
18925.000 0.21902
18930.000 0.22644
18935.000 0.23715
18940.000 0.24981
18945.000 0.26226
18950.000 0.27200
18955.000 0.27686
18960.000 0.27544
18965.000 0.26756
18970.000 0.25446
18975.000 0.23863
18980.000 0.22324
18985.000 0.21117
18990.000 0.20399
18995.000 0.20214
19000.000 0.20528
19005.000 0.21260
19010.000 0.22319
19015.000 0.23602
19020.000 0.24825
19025.000 0.25680
19030.000 0.26011
19035.000 0.25731
19040.000 0.24925
19045.000 0.23863
19050.000 0.22808
19055.000 0.21972
19060.000 0.21485
19065.000 0.21429
19070.000 0.21832
19075.000 0.22666
19080.000 0.23825
19085.000 0.25094
19090.000 0.26197
19095.000 0.26839
19100.000 0.26823
19105.000 0.26094
19110.000 0.24790
19115.000 0.23193
19120.000 0.21620
19125.000 0.20326
19130.000 0.19436
19135.000 0.19006
19140.000 0.19044
19145.000 0.19560
19150.000 0.20528
19155.000 0.21870
19160.000 0.23381
19165.000 0.24777
19170.000 0.25780
19175.000 0.26226
19180.000 0.26103
19185.000 0.25516
19190.000 0.24650
19195.000 0.23688
19200.000 0.22806
19205.000 0.22133
19210.000 0.21695
19215.000 0.21518
19220.000 0.21722
19225.000 0.22203
19230.000 0.22825
19235.000 0.23543
19240.000 0.24236
19245.000 0.24766
19250.000 0.25046
19255.000 0.25032
19260.000 0.24747
19265.000 0.24263
19270.000 0.23674
19275.000 0.23075
19280.000 0.22550
19285.000 0.22158
19290.000 0.21926
19295.000 0.21875
19300.000 0.21991
19305.000 0.22249
19310.000 0.22612
19315.000 0.23026
19320.000 0.23430
19325.000 0.23771
19330.000 0.24019
19335.000 0.24158
19340.000 0.24191
19345.000 0.24134
19350.000 0.24005
19355.000 0.23830
19360.000 0.23629
19365.000 0.23416
19370.000 0.23206
19375.000 0.23013
19380.000 0.22849
19385.000 0.22717
19390.000 0.22634
19395.000 0.22593
19400.000 0.22604
19405.000 0.22658
19410.000 0.22747
19415.000 0.22860
19420.000 0.22978
19425.000 0.23080
19430.000 0.23150
19435.000 0.23174
19440.000 0.23142
19445.000 0.23056
19450.000 0.22924
19455.000 0.22768
19460.000 0.22612
19465.000 0.22483
19470.000 0.22405
19475.000 0.22397
19480.000 0.22467
19485.000 0.22609
19490.000 0.22814
19495.000 0.23053
19500.000 0.23290
19505.000 0.23481
19510.000 0.23575
19515.000 0.23532
19520.000 0.23322
19525.000 0.22938
19530.000 0.22400
19535.000 0.21765
19540.000 0.21109
19545.000 0.20509
19550.000 0.20031
19555.000 0.19719
19560.000 0.19592
19565.000 0.19660
19570.000 0.19907
19575.000 0.20318
19580.000 0.20851
19585.000 0.21442
19590.000 0.22023
19595.000 0.22518
19600.000 0.22878
19605.000 0.23077
19610.000 0.23112
19615.000 0.23013
19620.000 0.22819
19625.000 0.22558
19630.000 0.22263
19635.000 0.21978
19640.000 0.21725
19645.000 0.21518
19650.000 0.21364
19655.000 0.21270
19660.000 0.21230
19665.000 0.21241
19670.000 0.21289
19675.000 0.21364
19680.000 0.21453
19685.000 0.21545
19690.000 0.21631
19695.000 0.21703
19700.000 0.21757
19705.000 0.21789
19710.000 0.21797
19715.000 0.21789
19720.000 0.21760
19725.000 0.21719
19730.000 0.21668
19735.000 0.21614
19740.000 0.21563
19745.000 0.21520
19750.000 0.21488
19755.000 0.21469
19760.000 0.21464
19765.000 0.21472
19770.000 0.21485
19775.000 0.21499
19780.000 0.21512
19785.000 0.21515
19790.000 0.21504
19795.000 0.21483
19800.000 0.21448
19805.000 0.21402
19810.000 0.21351
19815.000 0.21303
19820.000 0.21260
19825.000 0.21227
19830.000 0.21206
19835.000 0.21200
19840.000 0.21206
19845.000 0.21217
19850.000 0.21225
19855.000 0.21222
19860.000 0.21208
19865.000 0.21176
19870.000 0.21128
19875.000 0.21063
19880.000 0.20988
19885.000 0.20913
19890.000 0.20848
19895.000 0.20800
19900.000 0.20778
19905.000 0.20786
19910.000 0.20824
19915.000 0.20891
19920.000 0.20983
19925.000 0.21087
19930.000 0.21192
19935.000 0.21292
19940.000 0.21370
19945.000 0.21418
19950.000 0.21432
19955.000 0.21407
19960.000 0.21351
19965.000 0.21260
19970.000 0.21139
19975.000 0.20996
19980.000 0.20827
19985.000 0.20630
19990.000 0.20396
19995.000 0.20109
20000.000 0.19751
20005.000 0.19310
20010.000 0.18788
20015.000 0.18213
20020.000 0.17637
20025.000 0.17126
20030.000 0.16742
20035.000 0.16527
20040.000 0.16484
20045.000 0.16591
20050.000 0.16906
20055.000 0.17438
20060.000 0.18095
20065.000 0.18842
20070.000 0.19652
20075.000 0.20429
20080.000 0.21085
20085.000 0.21547
20090.000 0.21770
20095.000 0.21749
20100.000 0.21504
20105.000 0.21085
20110.000 0.20555
20115.000 0.19988
20120.000 0.19444
20125.000 0.18982
20130.000 0.18632
20135.000 0.18415
20140.000 0.18334
20145.000 0.18374
20150.000 0.18525
20155.000 0.18753
20160.000 0.19025
20165.000 0.19294
20170.000 0.19522
20175.000 0.19684
20180.000 0.19762
20185.000 0.19764
20190.000 0.19711
20195.000 0.19625
20200.000 0.19530
20205.000 0.19455
20210.000 0.19415
20215.000 0.19412
20220.000 0.19450
20225.000 0.19522
20230.000 0.19614
20235.000 0.19708
20240.000 0.19794
20245.000 0.19856
20250.000 0.19891
20255.000 0.19888
20260.000 0.19861
20265.000 0.19810
20270.000 0.19743
20275.000 0.19673
20280.000 0.19608
20285.000 0.19560
20290.000 0.19525
20295.000 0.19512
20300.000 0.19514
20305.000 0.19528
20310.000 0.19544
20315.000 0.19560
20320.000 0.19565
20325.000 0.19560
20330.000 0.19536
20335.000 0.19498
20340.000 0.19444
20345.000 0.19385
20350.000 0.19323
20355.000 0.19264
20360.000 0.19213
20365.000 0.19173
20370.000 0.19149
20375.000 0.19135
20380.000 0.19130
20385.000 0.19133
20390.000 0.19135
20395.000 0.19133
20400.000 0.19127
20405.000 0.19111
20410.000 0.19089
20415.000 0.19060
20420.000 0.19030
20425.000 0.19003
20430.000 0.18985
20435.000 0.18979
20440.000 0.18987
20445.000 0.19009
20450.000 0.19041
20455.000 0.19084
20460.000 0.19124
20465.000 0.19162
20470.000 0.19184
20475.000 0.19186
20480.000 0.19157
20485.000 0.19103
20490.000 0.19020
20495.000 0.18901
20500.000 0.18756
20505.000 0.18603
20510.000 0.18449
20515.000 0.18299
20520.000 0.18164
20525.000 0.18054
20530.000 0.17971
20535.000 0.17920
20540.000 0.17898
20545.000 0.17909
20550.000 0.17947
20555.000 0.18006
20560.000 0.18084
20565.000 0.18173
20570.000 0.18269
20575.000 0.18366
20580.000 0.18460
20585.000 0.18546
20590.000 0.18624
20595.000 0.18689
20600.000 0.18740
20605.000 0.18769
20610.000 0.18778
20615.000 0.18761
20620.000 0.18716
20625.000 0.18643
20630.000 0.18544
20635.000 0.18423
20640.000 0.18288
20645.000 0.18148
20650.000 0.18014
20655.000 0.17893
20660.000 0.17793
20665.000 0.17723
20670.000 0.17686
20675.000 0.17680
20680.000 0.17705
20685.000 0.17753
20690.000 0.17818
20695.000 0.17887
20700.000 0.17957
20705.000 0.18014
20710.000 0.18049
20715.000 0.18068
20720.000 0.18065
20725.000 0.18035
20730.000 0.17990
20735.000 0.17941
20740.000 0.17893
20745.000 0.17855
20750.000 0.17828
20755.000 0.17820
20760.000 0.17831
20765.000 0.17855
20770.000 0.17896
20775.000 0.17941
20780.000 0.17990
20785.000 0.18030
20790.000 0.18054
20795.000 0.18062
20800.000 0.18049
20805.000 0.18017
20810.000 0.17960
20815.000 0.17890
20820.000 0.17810
20825.000 0.17726
20830.000 0.17643
20835.000 0.17570
20840.000 0.17508
20845.000 0.17463
20850.000 0.17433
20855.000 0.17420
20860.000 0.17422
20865.000 0.17436
20870.000 0.17457
20875.000 0.17481
20880.000 0.17503
20885.000 0.17522
20890.000 0.17533
20895.000 0.17535
20900.000 0.17527
20905.000 0.17514
20910.000 0.17492
20915.000 0.17465
20920.000 0.17436
20925.000 0.17406
20930.000 0.17374
20935.000 0.17344
20940.000 0.17315
20945.000 0.17288
20950.000 0.17264
20955.000 0.17242
20960.000 0.17221
20965.000 0.17204
20970.000 0.17186
20975.000 0.17172
20980.000 0.17161
20985.000 0.17151
20990.000 0.17145
20995.000 0.17145
21000.000 0.17148
21005.000 0.17153
21010.000 0.17161
21015.000 0.17172
21020.000 0.17180
21025.000 0.17188
21030.000 0.17196
21035.000 0.17199
21040.000 0.17191
21045.000 0.17183
21050.000 0.17183
21055.000 0.17178
21060.000 0.17159
21065.000 0.17108
21070.000 0.17035
21075.000 0.16962
21080.000 0.16890
21085.000 0.16817
21090.000 0.16745
21095.000 0.16677
21100.000 0.16618
21105.000 0.16564
21110.000 0.16521
21115.000 0.16492
21120.000 0.16478
21125.000 0.16478
21130.000 0.16495
21135.000 0.16527
21140.000 0.16573
21145.000 0.16624
21150.000 0.16675
21155.000 0.16720
21160.000 0.16753
21165.000 0.16766
21170.000 0.16755
21175.000 0.16718
21180.000 0.16659
21185.000 0.16575
21190.000 0.16481
21195.000 0.16382
21200.000 0.16296
21205.000 0.16228
21210.000 0.16191
21215.000 0.16188
21220.000 0.16226
21225.000 0.16301
21230.000 0.16406
21235.000 0.16519
21240.000 0.16626
21245.000 0.16715
21250.000 0.16766
21255.000 0.16769
21260.000 0.16718
21265.000 0.16608
21270.000 0.16446
21275.000 0.16242
21280.000 0.16008
21285.000 0.15766
21290.000 0.15537
21295.000 0.15338
21300.000 0.15185
21305.000 0.15088
21310.000 0.15053
21315.000 0.15086
21320.000 0.15177
21325.000 0.15322
21330.000 0.15508
21335.000 0.15715
21340.000 0.15924
21345.000 0.16110
21350.000 0.16258
21355.000 0.16349
21360.000 0.16379
21365.000 0.16344
21370.000 0.16253
21375.000 0.16113
21380.000 0.15949
21385.000 0.15779
21390.000 0.15623
21395.000 0.15500
21400.000 0.15432
21405.000 0.15427
21410.000 0.15478
21415.000 0.15586
21420.000 0.15731
21425.000 0.15895
21430.000 0.16064
21435.000 0.16228
21440.000 0.16360
21445.000 0.16435
21450.000 0.16452
21455.000 0.16427
21460.000 0.16357
21465.000 0.16244
21470.000 0.16105
21475.000 0.15951
21480.000 0.15798
21485.000 0.15653
21490.000 0.15527
21495.000 0.15427
21500.000 0.15362
21505.000 0.15333
21510.000 0.15333
21515.000 0.15360
21520.000 0.15400
21525.000 0.15454
21530.000 0.15510
21535.000 0.15567
21540.000 0.15618
21545.000 0.15664
21550.000 0.15707
21555.000 0.15744
21560.000 0.15779
21565.000 0.15812
21570.000 0.15838
21575.000 0.15860
21580.000 0.15868
21585.000 0.15865
21590.000 0.15841
21595.000 0.15790
21600.000 0.15707
21605.000 0.15583
21610.000 0.15427
21615.000 0.15241
21620.000 0.15032
21625.000 0.14809
21630.000 0.14588
21635.000 0.14378
21640.000 0.14195
21645.000 0.14048
21650.000 0.13948
21655.000 0.13897
21660.000 0.13900
21665.000 0.13951
21670.000 0.14045
21675.000 0.14166
21680.000 0.14306
21685.000 0.14451
21690.000 0.14583
21695.000 0.14696
21700.000 0.14784
21705.000 0.14846
21710.000 0.14881
21715.000 0.14884
21720.000 0.14862
21725.000 0.14825
21730.000 0.14784
21735.000 0.14749
21740.000 0.14728
21745.000 0.14731
21750.000 0.14757
21755.000 0.14806
21760.000 0.14873
21765.000 0.14954
21770.000 0.15034
21775.000 0.15110
21780.000 0.15163
21785.000 0.15193
21790.000 0.15193
21795.000 0.15161
21800.000 0.15099
21805.000 0.15010
21810.000 0.14911
21815.000 0.14809
21820.000 0.14722
21825.000 0.14661
21830.000 0.14626
21835.000 0.14626
21840.000 0.14658
21845.000 0.14714
21850.000 0.14787
21855.000 0.14868
21860.000 0.14940
21865.000 0.14997
21870.000 0.15026
21875.000 0.15021
21880.000 0.14981
21885.000 0.14905
21890.000 0.14803
21895.000 0.14682
21900.000 0.14558
21905.000 0.14440
21910.000 0.14343
21915.000 0.14279
21920.000 0.14255
21925.000 0.14273
21930.000 0.14335
21935.000 0.14429
21940.000 0.14548
21945.000 0.14685
21950.000 0.14819
21955.000 0.14930
21960.000 0.15008
21965.000 0.15042
21970.000 0.15029
21975.000 0.14962
21980.000 0.14846
21985.000 0.14696
21990.000 0.14515
21995.000 0.14327
22000.000 0.14147
22005.000 0.13988
22010.000 0.13865
22015.000 0.13787
22020.000 0.13763
22025.000 0.13787
22030.000 0.13859
22035.000 0.13964
22040.000 0.14096
22045.000 0.14233
22050.000 0.14362
22055.000 0.14470
22060.000 0.14548
22065.000 0.14585
22070.000 0.14583
22075.000 0.14540
22080.000 0.14467
22085.000 0.14370
22090.000 0.14263
22095.000 0.14155
22100.000 0.14061
22105.000 0.13986
22110.000 0.13940
22115.000 0.13924
22120.000 0.13937
22125.000 0.13975
22130.000 0.14031
22135.000 0.14099
22140.000 0.14169
22145.000 0.14228
22150.000 0.14271
22155.000 0.14292
22160.000 0.14290
22165.000 0.14263
22170.000 0.14214
22175.000 0.14150
22180.000 0.14074
22185.000 0.13996
22190.000 0.13927
22195.000 0.13862
22200.000 0.13814
22205.000 0.13787
22210.000 0.13787
22215.000 0.13797
22220.000 0.13819
22225.000 0.13846
22230.000 0.13873
22235.000 0.13894
22240.000 0.13905
22245.000 0.13900
22250.000 0.13881
22255.000 0.13843
22260.000 0.13792
22265.000 0.13733
22270.000 0.13671
22275.000 0.13612
22280.000 0.13564
22285.000 0.13529
22290.000 0.13510
22295.000 0.13510
22300.000 0.13526
22305.000 0.13558
22310.000 0.13601
22315.000 0.13650
22320.000 0.13695
22325.000 0.13736
22330.000 0.13765
22335.000 0.13779
22340.000 0.13779
22345.000 0.13760
22350.000 0.13730
22355.000 0.13690
22360.000 0.13647
22365.000 0.13604
22370.000 0.13564
22375.000 0.13537
22380.000 0.13518
22385.000 0.13515
22390.000 0.13523
22395.000 0.13539
22400.000 0.13564
22405.000 0.13585
22410.000 0.13604
22415.000 0.13612
22420.000 0.13604
22425.000 0.13577
22430.000 0.13534
22435.000 0.13472
22440.000 0.13397
22445.000 0.13313
22450.000 0.13227
22455.000 0.13149
22460.000 0.13079
22465.000 0.13023
22470.000 0.12988
22475.000 0.12985
22480.000 0.13018
22485.000 0.13069
22490.000 0.13133
22495.000 0.13211
22500.000 0.13295
22505.000 0.13375
22510.000 0.13445
22515.000 0.13496
22520.000 0.13523
22525.000 0.13523
22530.000 0.13494
22535.000 0.13440
22540.000 0.13365
22545.000 0.13270
22550.000 0.13171
22555.000 0.13069
22560.000 0.12975
22565.000 0.12897
22570.000 0.12835
22575.000 0.12797
22580.000 0.12786
22585.000 0.12794
22590.000 0.12827
22595.000 0.12872
22600.000 0.12929
22605.000 0.12985
22610.000 0.13042
22615.000 0.13090
22620.000 0.13125
22625.000 0.13144
22630.000 0.13147
22635.000 0.13133
22640.000 0.13106
22645.000 0.13069
22650.000 0.13026
22655.000 0.12980
22660.000 0.12937
22665.000 0.12897
22670.000 0.12864
22675.000 0.12843
22680.000 0.12824
22685.000 0.12813
22690.000 0.12808
22695.000 0.12803
22700.000 0.12794
22705.000 0.12784
22710.000 0.12765
22715.000 0.12743
22720.000 0.12714
22725.000 0.12684
22730.000 0.12663
22735.000 0.12649
22740.000 0.12644
22745.000 0.12644
22750.000 0.12649
22755.000 0.12665
22760.000 0.12684
22765.000 0.12708
22770.000 0.12735
22775.000 0.12762
22780.000 0.12786
22785.000 0.12805
22790.000 0.12816
22795.000 0.12819
22800.000 0.12808
22805.000 0.12786
22810.000 0.12751
22815.000 0.12706
22820.000 0.12652
22825.000 0.12587
22830.000 0.12520
22835.000 0.12450
22840.000 0.12386
22845.000 0.12327
22850.000 0.12278
22855.000 0.12243
22860.000 0.12222
22865.000 0.12216
22870.000 0.12224
22875.000 0.12249
22880.000 0.12284
22885.000 0.12327
22890.000 0.12375
22895.000 0.12423
22900.000 0.12472
22905.000 0.12515
22910.000 0.12547
22915.000 0.12571
22920.000 0.12582
22925.000 0.12579
22930.000 0.12566
22935.000 0.12542
22940.000 0.12509
22945.000 0.12472
22950.000 0.12429
22955.000 0.12386
22960.000 0.12343
22965.000 0.12302
22970.000 0.12265
22975.000 0.12232
22980.000 0.12203
22985.000 0.12176
22990.000 0.12149
22995.000 0.12125
23000.000 0.12098
23005.000 0.12071
23010.000 0.12042
23015.000 0.12009
23020.000 0.11977
23025.000 0.11942
23030.000 0.11910
23035.000 0.11883
23040.000 0.11861
23045.000 0.11851
23050.000 0.11851
23055.000 0.11861
23060.000 0.11888
23065.000 0.11931
23070.000 0.11985
23075.000 0.12052
23080.000 0.12128
23085.000 0.12208
23090.000 0.12289
23095.000 0.12364
23100.000 0.12426
23105.000 0.12474
23110.000 0.12501
23115.000 0.12501
23120.000 0.12477
23125.000 0.12426
23130.000 0.12348
23135.000 0.12249
23140.000 0.12128
23145.000 0.11993
23150.000 0.11851
23155.000 0.11708
23160.000 0.11576
23165.000 0.11455
23170.000 0.11356
23175.000 0.11281
23180.000 0.11235
23185.000 0.11221
23190.000 0.11237
23195.000 0.11281
23200.000 0.11348
23205.000 0.11436
23210.000 0.11539
23215.000 0.11646
23220.000 0.11754
23225.000 0.11853
23230.000 0.11942
23235.000 0.12012
23240.000 0.12060
23245.000 0.12087
23250.000 0.12093
23255.000 0.12074
23260.000 0.12036
23265.000 0.11985
23270.000 0.11923
23275.000 0.11853
23280.000 0.11786
23285.000 0.11724
23290.000 0.11668
23295.000 0.11625
23300.000 0.11592
23305.000 0.11576
23310.000 0.11571
23315.000 0.11574
23320.000 0.11587
23325.000 0.11603
23330.000 0.11625
23335.000 0.11644
23340.000 0.11654
23345.000 0.11660
23350.000 0.11654
23355.000 0.11638
23360.000 0.11611
23365.000 0.11576
23370.000 0.11533
23375.000 0.11485
23380.000 0.11436
23385.000 0.11388
23390.000 0.11342
23395.000 0.11305
23400.000 0.11272
23405.000 0.11254
23410.000 0.11243
23415.000 0.11243
23420.000 0.11254
23425.000 0.11267
23430.000 0.11286
23435.000 0.11307
23440.000 0.11329
23445.000 0.11348
23450.000 0.11361
23455.000 0.11367
23460.000 0.11367
23465.000 0.11359
23470.000 0.11345
23475.000 0.11326
23480.000 0.11305
23485.000 0.11281
23490.000 0.11259
23495.000 0.11237
23500.000 0.11221
23505.000 0.11208
23510.000 0.11200
23515.000 0.11197
23520.000 0.11197
23525.000 0.11197
23530.000 0.11200
23535.000 0.11200
23540.000 0.11197
23545.000 0.11192
23550.000 0.11178
23555.000 0.11162
23560.000 0.11141
23565.000 0.11114
23570.000 0.11084
23575.000 0.11055
23580.000 0.11030
23585.000 0.11009
23590.000 0.10995
23595.000 0.10993
23600.000 0.11001
23605.000 0.11022
23610.000 0.11052
23615.000 0.11092
23620.000 0.11143
23625.000 0.11200
23630.000 0.11256
23635.000 0.11307
23640.000 0.11350
23645.000 0.11377
23650.000 0.11391
23655.000 0.11383
23660.000 0.11353
23665.000 0.11299
23670.000 0.11227
23675.000 0.11135
23680.000 0.11028
23685.000 0.10912
23690.000 0.10791
23695.000 0.10673
23700.000 0.10563
23705.000 0.10466
23710.000 0.10390
23715.000 0.10337
23720.000 0.10310
23725.000 0.10307
23730.000 0.10331
23735.000 0.10377
23740.000 0.10442
23745.000 0.10522
23750.000 0.10611
23755.000 0.10700
23760.000 0.10788
23765.000 0.10866
23770.000 0.10928
23775.000 0.10977
23780.000 0.11004
23785.000 0.11012
23790.000 0.10998
23795.000 0.10969
23800.000 0.10923
23805.000 0.10869
23810.000 0.10810
23815.000 0.10748
23820.000 0.10692
23825.000 0.10641
23830.000 0.10600
23835.000 0.10573
23840.000 0.10557
23845.000 0.10552
23850.000 0.10560
23855.000 0.10576
23860.000 0.10595
23865.000 0.10616
23870.000 0.10638
23875.000 0.10654
23880.000 0.10662
23885.000 0.10662
23890.000 0.10651
23895.000 0.10632
23900.000 0.10603
23905.000 0.10565
23910.000 0.10525
23915.000 0.10482
23920.000 0.10436
23925.000 0.10399
23930.000 0.10369
23935.000 0.10350
23940.000 0.10339
23945.000 0.10339
23950.000 0.10350
23955.000 0.10372
23960.000 0.10401
23965.000 0.10436
23970.000 0.10471
23975.000 0.10509
23980.000 0.10541
23985.000 0.10565
23990.000 0.10581
23995.000 0.10584
24000.000 0.10576
24005.000 0.10557
24010.000 0.10525
24015.000 0.10485
24020.000 0.10436
24025.000 0.10385
24030.000 0.10329
24035.000 0.10275
24040.000 0.10226
24045.000 0.10186
24050.000 0.10154
24055.000 0.10132
24060.000 0.10122
24065.000 0.10122
24070.000 0.10135
24075.000 0.10154
24080.000 0.10181
24085.000 0.10213
24090.000 0.10245
24095.000 0.10278
24100.000 0.10307
24105.000 0.10331
24110.000 0.10347
24115.000 0.10358
24120.000 0.10358
24125.000 0.10347
24130.000 0.10331
24135.000 0.10304
24140.000 0.10272
24145.000 0.10234
24150.000 0.10194
24155.000 0.10151
24160.000 0.10105
24165.000 0.10062
24170.000 0.10022
24175.000 0.09984
24180.000 0.09949
24185.000 0.09920
24190.000 0.09896
24195.000 0.09880
24200.000 0.09866
24205.000 0.09861
24210.000 0.09858
24215.000 0.09866
24220.000 0.09877
24225.000 0.09896
24230.000 0.09920
24235.000 0.09947
24240.000 0.09982
24245.000 0.10019
24250.000 0.10060
24255.000 0.10100
24260.000 0.10138
24265.000 0.10173
24270.000 0.10202
24275.000 0.10224
24280.000 0.10237
24285.000 0.10237
24290.000 0.10221
24295.000 0.10194
24300.000 0.10151
24305.000 0.10097
24310.000 0.10027
24315.000 0.09949
24320.000 0.09866
24325.000 0.09777
24330.000 0.09686
24335.000 0.09603
24340.000 0.09527
24345.000 0.09463
24350.000 0.09414
24355.000 0.09385
24360.000 0.09377
24365.000 0.09390
24370.000 0.09422
24375.000 0.09476
24380.000 0.09546
24385.000 0.09627
24390.000 0.09718
24395.000 0.09815
24400.000 0.09906
24405.000 0.09992
24410.000 0.10068
24415.000 0.10124
24420.000 0.10159
24425.000 0.10175
24430.000 0.10165
24435.000 0.10130
24440.000 0.10073
24445.000 0.09995
24450.000 0.09901
24455.000 0.09796
24460.000 0.09683
24465.000 0.09573
24470.000 0.09463
24475.000 0.09363
24480.000 0.09277
24485.000 0.09210
24490.000 0.09162
24495.000 0.09135
24500.000 0.09127
24505.000 0.09140
24510.000 0.09172
24515.000 0.09221
24520.000 0.09277
24525.000 0.09344
24530.000 0.09417
24535.000 0.09484
24540.000 0.09551
24545.000 0.09611
24550.000 0.09662
24555.000 0.09702
24560.000 0.09729
24565.000 0.09737
24570.000 0.09732
24575.000 0.09718
24580.000 0.09699
24585.000 0.09675
24590.000 0.09643
24595.000 0.09611
24600.000 0.09581
24605.000 0.09551
24610.000 0.09525
24615.000 0.09503
24620.000 0.09487
24625.000 0.09476
24630.000 0.09465
24635.000 0.09460
24640.000 0.09455
24645.000 0.09449
24650.000 0.09441
24655.000 0.09430
24660.000 0.09417
24665.000 0.09401
24670.000 0.09377
24675.000 0.09352
24680.000 0.09323
24685.000 0.09291
24690.000 0.09258
24695.000 0.09226
24700.000 0.09194
24705.000 0.09167
24710.000 0.09145
24715.000 0.09132
24720.000 0.09121
24725.000 0.09121
24730.000 0.09127
24735.000 0.09137
24740.000 0.09156
24745.000 0.09178
24750.000 0.09205
24755.000 0.09231
24760.000 0.09256
24765.000 0.09280
24770.000 0.09301
24775.000 0.09318
24780.000 0.09328
24785.000 0.09334
24790.000 0.09334
24795.000 0.09328
24800.000 0.09315
24805.000 0.09299
24810.000 0.09277
24815.000 0.09253
24820.000 0.09229
24825.000 0.09202
24830.000 0.09175
24835.000 0.09148
24840.000 0.09121
24845.000 0.09097
24850.000 0.09073
24855.000 0.09051
24860.000 0.09030
24865.000 0.09006
24870.000 0.08984
24875.000 0.08963
24880.000 0.08941
24885.000 0.08917
24890.000 0.08895
24895.000 0.08874
24900.000 0.08852
24905.000 0.08833
24910.000 0.08817
24915.000 0.08804
24920.000 0.08793
24925.000 0.08788
24930.000 0.08788
24935.000 0.08793
24940.000 0.08801
24945.000 0.08817
24950.000 0.08836
24955.000 0.08858
24960.000 0.08879
24965.000 0.08895
24970.000 0.08911
24975.000 0.08933
24980.000 0.08963
24985.000 0.08989
24990.000 0.00000
24995.000 0.00000
25000.000 0.00000
