# Wavelength_[A] F_lambda_[norm]
1150.000 0.27201
1155.000 0.23635
1160.000 0.19348
1165.000 0.01259
1170.000 0.00000
1175.000 0.01463
1180.000 0.00000
1185.000 0.00000
1190.000 0.00000
1195.000 0.00000
1200.000 0.03227
1205.000 0.08098
1210.000 0.26982
1215.000 0.43424
1220.000 0.25853
1225.000 0.05356
1230.000 0.01672
1235.000 0.01695
1240.000 0.01876
1245.000 0.01245
1250.000 0.02117
1255.000 0.01752
1260.000 0.01379
1265.000 0.00278
1270.000 0.00728
1275.000 0.00420
1280.000 0.01008
1285.000 0.00173
1290.000 0.00000
1295.000 0.00000
1300.000 0.00000
1305.000 0.00718
1310.000 0.00440
1315.000 0.00143
1320.000 0.00280
1325.000 0.00000
1330.000 0.00000
1335.000 0.01851
1340.000 0.01460
1345.000 0.00793
1350.000 0.00828
1355.000 0.01444
1360.000 0.01547
1365.000 0.00042
1370.000 0.00066
1375.000 0.00726
1380.000 0.01272
1385.000 0.00184
1390.000 0.00075
1395.000 0.00943
1400.000 0.00000
1405.000 0.00000
1410.000 0.00872
1415.000 0.00628
1420.000 0.01097
1425.000 0.02164
1430.000 0.01580
1435.000 0.01824
1440.000 0.01794
1445.000 0.01381
1450.000 0.01244
1455.000 0.02058
1460.000 0.02101
1465.000 0.01074
1470.000 0.01906
1475.000 0.02415
1480.000 0.02619
1485.000 0.03742
1490.000 0.02565
1495.000 0.02950
1500.000 0.03832
1505.000 0.03851
1510.000 0.03865
1515.000 0.02956
1520.000 0.02821
1525.000 0.03465
1530.000 0.03022
1535.000 0.04452
1540.000 0.05252
1545.000 0.05100
1550.000 0.06381
1555.000 0.06208
1560.000 0.05368
1565.000 0.06303
1570.000 0.05410
1575.000 0.05377
1580.000 0.06464
1585.000 0.06776
1590.000 0.06317
1595.000 0.06206
1600.000 0.07534
1605.000 0.09933
1610.000 0.12674
1615.000 0.08358
1620.000 0.07673
1625.000 0.08415
1630.000 0.09087
1635.000 0.09537
1640.000 0.11099
1645.000 0.11720
1650.000 0.11519
1655.000 0.09932
1660.000 0.10195
1665.000 0.14429
1670.000 0.13039
1675.000 0.15535
1680.000 0.19395
1685.000 0.20534
1690.000 0.25355
1695.000 0.30573
1700.000 0.41281
1705.000 0.55737
1710.000 0.78219
1715.000 0.96938
1720.000 1.00556
1725.000 0.97350
1730.000 1.16788
1735.000 1.18251
1740.000 1.16639
1745.000 1.26341
1750.000 1.47709
1755.000 1.65036
1760.000 1.56869
1765.000 1.44506
1770.000 1.67503
1775.000 2.02608
1780.000 2.19031
1785.000 2.04738
1790.000 2.05551
1795.000 2.38964
1800.000 2.45964
1805.000 2.14868
1810.000 2.00652
1815.000 2.20630
1820.000 2.27625
1825.000 2.36146
1830.000 2.23928
1835.000 2.13131
1840.000 1.88239
1845.000 1.67522
1850.000 1.62018
1855.000 1.73197
1860.000 1.87423
1865.000 2.03801
1870.000 2.22161
1875.000 2.24520
1880.000 2.31899
1885.000 2.43435
1890.000 2.41233
1895.000 2.32001
1900.000 2.17356
1905.000 2.25354
1910.000 2.30130
1915.000 2.44820
1920.000 2.53144
1925.000 2.28821
1930.000 1.84897
1935.000 1.78571
1940.000 2.43196
1945.000 2.93687
1950.000 3.00699
1955.000 2.93553
1960.000 2.76610
1965.000 2.75185
1970.000 2.75085
1975.000 3.09442
1980.000 2.99500
1985.000 3.02661
1990.000 2.77198
1995.000 2.39908
2000.000 2.50624
2005.000 2.59025
2010.000 2.45230
2015.000 2.59822
2020.000 2.61843
2025.000 2.72922
2030.000 2.72693
2035.000 2.85967
2040.000 2.91626
2045.000 2.89060
2050.000 3.21919
2055.000 3.41418
2060.000 3.06943
2065.000 3.00349
2070.000 3.26258
2075.000 3.44205
2080.000 3.81224
2085.000 4.00838
2090.000 3.91718
2095.000 3.65792
2100.000 3.55428
2105.000 3.53891
2110.000 3.45283
2115.000 3.43890
2120.000 3.36783
2125.000 3.72636
2130.000 3.87895
2135.000 3.16010
2140.000 2.68625
2145.000 2.90889
2150.000 3.21911
2155.000 3.37805
2160.000 3.43178
2165.000 3.15688
2170.000 3.06081
2175.000 2.82564
2180.000 2.84505
2185.000 3.14314
2190.000 3.51028
2195.000 3.74626
2200.000 3.95192
2205.000 4.12093
2210.000 3.74940
2215.000 3.26266
2220.000 3.02872
2225.000 2.99457
2230.000 3.08622
2235.000 3.19161
2240.000 3.56668
2245.000 3.34930
2250.000 3.01184
2255.000 2.95689
2260.000 2.98130
2265.000 2.88789
2270.000 2.83060
2275.000 2.70965
2280.000 2.77810
2285.000 2.96271
2290.000 3.41906
2295.000 3.38196
2300.000 3.05438
2305.000 2.76374
2310.000 2.88581
2315.000 3.09770
2320.000 2.99035
2325.000 3.08876
2330.000 2.95463
2335.000 2.74569
2340.000 2.39742
2345.000 2.14452
2350.000 1.89209
2355.000 2.04806
2360.000 2.56831
2365.000 2.43005
2370.000 2.30289
2375.000 2.48386
2380.000 2.51197
2385.000 2.21315
2390.000 1.88088
2395.000 2.09871
2400.000 2.12875
2405.000 2.01072
2410.000 1.94006
2415.000 1.87258
2420.000 2.27064
2425.000 2.86359
2430.000 3.14023
2435.000 2.99760
2440.000 2.87950
2445.000 3.02076
2450.000 3.03737
2455.000 2.88699
2460.000 2.91723
2465.000 2.88571
2470.000 2.64419
2475.000 2.65659
2480.000 2.77389
2485.000 2.70686
2490.000 2.65746
2495.000 2.60924
2500.000 2.94388
2505.000 3.23480
2510.000 3.13432
2515.000 2.93316
2520.000 2.62565
2525.000 2.35029
2530.000 2.21249
2535.000 2.18545
2540.000 2.21738
2545.000 2.22929
2550.000 2.34208
2555.000 2.50013
2560.000 2.86733
2565.000 3.02133
2570.000 3.25498
2575.000 3.54006
2580.000 3.00914
2585.000 2.88438
2590.000 3.24986
2595.000 3.46085
2600.000 3.27066
2605.000 2.94563
2610.000 2.85020
2615.000 2.68488
2620.000 2.98801
2625.000 3.32662
2630.000 3.21180
2635.000 3.19878
2640.000 4.12818
2645.000 5.02135
2650.000 5.27807
2655.000 5.26745
2660.000 5.25635
2665.000 4.72737
2670.000 4.31817
2675.000 4.38957
2680.000 4.55414
2685.000 4.50996
2690.000 4.45162
2695.000 4.14765
2700.000 3.99684
2705.000 4.29289
2710.000 4.44824
2715.000 4.16896
2720.000 4.04219
2725.000 3.92570
2730.000 4.06833
2735.000 4.31597
2740.000 4.12536
2745.000 3.44366
2750.000 3.10974
2755.000 3.10092
2760.000 3.41312
2765.000 3.84696
2770.000 3.96567
2775.000 4.14051
2780.000 4.17930
2785.000 3.71845
2790.000 3.48556
2795.000 2.89762
2800.000 1.92684
2805.000 1.78294
2810.000 2.55373
2815.000 3.85093
2820.000 4.82391
2825.000 5.21773
2830.000 5.24016
2835.000 5.00665
2840.000 4.88730
2845.000 4.63703
2850.000 4.47739
2855.000 4.12621
2860.000 4.26194
2865.000 4.79388
2870.000 4.85414
2875.000 4.81302
2880.000 4.81728
2885.000 4.99520
2890.000 5.15217
2895.000 5.07864
2900.000 5.28990
2905.000 5.79343
2910.000 6.14514
2915.000 6.00065
2920.000 5.99104
2925.000 5.74466
2930.000 5.42260
2935.000 5.48966
2940.000 5.57181
2945.000 5.68683
2950.000 5.60934
2955.000 5.66438
2960.000 6.07172
2965.000 6.07740
2970.000 5.80129
2975.000 5.73964
2980.000 6.05352
2985.000 5.70947
2990.000 5.59559
2995.000 6.11641
3000.000 6.19232
3005.000 5.79973
3010.000 6.00736
3015.000 6.21022
3020.000 6.01449
3025.000 5.86723
3030.000 5.97088
3035.000 6.10373
3040.000 6.09838
3045.000 6.07256
3050.000 6.02539
3055.000 6.21610
3060.000 5.96754
3065.000 5.83842
3070.000 6.02170
3075.000 6.16755
3080.000 6.34379
3085.000 6.65937
3090.000 6.64181
3095.000 6.25445
3100.000 5.82437
3105.000 6.02026
3110.000 6.64800
3115.000 6.85047
3120.000 6.57773
3125.000 6.37733
3130.000 6.47649
3135.000 6.56720
3140.000 6.85192
3145.000 6.90224
3150.000 6.88314
3155.000 6.94623
3160.000 6.69933
3165.000 6.60338
3170.000 6.81841
3175.000 7.19527
3180.000 7.05218
3185.000 6.74023
3190.000 6.80621
3195.000 6.90687
3200.000 7.17163
3205.000 7.59917
3210.000 7.46587
3215.000 7.15003
3220.000 6.78126
3225.000 6.52585
3230.000 6.53506
3235.000 6.85498
3240.000 7.12603
3245.000 7.04809
3250.000 6.96447
3255.000 7.22585
3260.000 7.56916
3265.000 7.66687
3270.000 7.54757
3275.000 7.34236
3280.000 7.23671
3285.000 7.37430
3290.000 7.67732
3295.000 7.99905
3300.000 8.13852
3305.000 7.96969
3310.000 7.72054
3315.000 7.63184
3320.000 7.64176
3325.000 7.63523
3330.000 7.58709
3335.000 7.50285
3340.000 7.42114
3345.000 7.38565
3350.000 7.42711
3355.000 7.53423
3360.000 7.54052
3365.000 7.32949
3370.000 7.13973
3375.000 7.19943
3380.000 7.34002
3385.000 7.36930
3390.000 7.39718
3395.000 7.54271
3400.000 7.65934
3405.000 7.60117
3410.000 7.49067
3415.000 7.48140
3420.000 7.58323
3425.000 7.73595
3430.000 7.74292
3435.000 7.48352
3440.000 7.27735
3445.000 7.41141
3450.000 7.60184
3455.000 7.53812
3460.000 7.37398
3465.000 7.31679
3470.000 7.32408
3475.000 7.31100
3480.000 7.27290
3485.000 7.23076
3490.000 7.22816
3495.000 7.29430
3500.000 7.37862
3505.000 7.42305
3510.000 7.12801
3515.000 7.17158
3520.000 7.11601
3525.000 7.14233
3530.000 7.30540
3535.000 7.50185
3540.000 7.63979
3545.000 7.66108
3550.000 7.64290
3555.000 7.54650
3560.000 7.46250
3565.000 7.19028
3570.000 6.93794
3575.000 6.85972
3580.000 6.83303
3585.000 6.77680
3590.000 6.89009
3595.000 7.15429
3600.000 7.30291
3605.000 7.21770
3610.000 6.98308
3615.000 6.93544
3620.000 7.01391
3625.000 7.29846
3630.000 7.31935
3635.000 7.23657
3640.000 7.30323
3645.000 7.27968
3650.000 7.38455
3655.000 7.70861
3660.000 7.85523
3665.000 7.84873
3670.000 7.73683
3675.000 7.64522
3680.000 7.49438
3685.000 7.49339
3690.000 7.62612
3695.000 7.76799
3700.000 7.83434
3705.000 7.57594
3710.000 7.70794
3715.000 8.17801
3720.000 8.14941
3725.000 8.16065
3730.000 8.18302
3735.000 8.07767
3740.000 8.86203
3745.000 8.30127
3750.000 7.67396
3755.000 9.06248
3760.000 9.74357
3765.000 8.94431
3770.000 8.01446
3775.000 9.62093
3780.000 11.71647
3785.000 11.73748
3790.000 10.28228
3795.000 8.63162
3800.000 8.74364
3805.000 10.64169
3810.000 12.27037
3815.000 12.62134
3820.000 12.19893
3825.000 10.54536
3830.000 8.59190
3835.000 7.75835
3840.000 9.27625
3845.000 11.60422
3850.000 13.10475
3855.000 13.55119
3860.000 13.63009
3865.000 13.82173
3870.000 13.54965
3875.000 12.74829
3880.000 11.30209
3885.000 8.99833
3890.000 8.08960
3895.000 9.93482
3900.000 12.05254
3905.000 13.23594
3910.000 14.04336
3915.000 14.52802
3920.000 14.22590
3925.000 12.16051
3930.000 9.03546
3935.000 9.30390
3940.000 12.26756
3945.000 13.46013
3950.000 13.50560
3955.000 12.93170
3960.000 11.23831
3965.000 8.18404
3970.000 6.85146
3975.000 9.52303
3980.000 12.51672
3985.000 13.90029
3990.000 14.42906
3995.000 14.69083
4000.000 15.01067
4005.000 15.27241
4010.000 15.54153
4015.000 15.80037
4020.000 15.95438
4025.000 15.72755
4030.000 15.47555
4035.000 15.86664
4040.000 16.18895
4045.000 15.93920
4050.000 15.75149
4055.000 15.34438
4060.000 15.15597
4065.000 15.06401
4070.000 14.91592
4075.000 14.33167
4080.000 13.90887
4085.000 13.87852
4090.000 13.13949
4095.000 10.76278
4100.000 8.67785
4105.000 9.77655
4110.000 12.17673
4115.000 13.61189
4120.000 14.11148
4125.000 14.24904
4130.000 14.36025
4135.000 14.94722
4140.000 15.43040
4145.000 15.43961
4150.000 15.35748
4155.000 15.17689
4160.000 15.31379
4165.000 15.28880
4170.000 14.86151
4175.000 14.57198
4180.000 14.77684
4185.000 15.07628
4190.000 15.37549
4195.000 15.16561
4200.000 14.82909
4205.000 15.10814
4210.000 15.47034
4215.000 15.38285
4220.000 15.04364
4225.000 14.51826
4230.000 14.61487
4235.000 14.69876
4240.000 14.90503
4245.000 14.74999
4250.000 14.66186
4255.000 14.97226
4260.000 15.08037
4265.000 15.01466
4270.000 14.60744
4275.000 14.70704
4280.000 14.96305
4285.000 14.57420
4290.000 14.09094
4295.000 13.89494
4300.000 13.59035
4305.000 13.54285
4310.000 13.52205
4315.000 13.51141
4320.000 13.43326
4325.000 12.96121
4330.000 11.92469
4335.000 9.71728
4340.000 8.02217
4345.000 9.38525
4350.000 11.57445
4355.000 13.05328
4360.000 13.88806
4365.000 14.19596
4370.000 14.08408
4375.000 14.16613
4380.000 14.25452
4385.000 14.05870
4390.000 14.25700
4395.000 14.26393
4400.000 14.31199
4405.000 14.50538
4410.000 14.58877
4415.000 14.37257
4420.000 14.37767
4425.000 14.49123
4430.000 14.54941
4435.000 14.52882
4440.000 14.48668
4445.000 14.39443
4450.000 14.45383
4455.000 14.16612
4460.000 14.04989
4465.000 14.07946
4470.000 14.26023
4475.000 14.33935
4480.000 14.03661
4485.000 14.10748
4490.000 14.19743
4495.000 14.42776
4500.000 14.57388
4505.000 14.69411
4510.000 14.72088
4515.000 14.56146
4520.000 14.19293
4525.000 13.79713
4530.000 13.54748
4535.000 13.95532
4540.000 14.25648
4545.000 13.85816
4550.000 13.33179
4555.000 13.45271
4560.000 13.85211
4565.000 14.09641
4570.000 14.11731
4575.000 13.99161
4580.000 13.64038
4585.000 13.50730
4590.000 13.70126
4595.000 13.80914
4600.000 13.90120
4605.000 14.03969
4610.000 14.14288
4615.000 14.10144
4620.000 14.01768
4625.000 13.97078
4630.000 13.83986
4635.000 13.83551
4640.000 13.86761
4645.000 13.75930
4650.000 13.70972
4655.000 13.87720
4660.000 13.97124
4665.000 13.67930
4670.000 13.50749
4675.000 13.70424
4680.000 13.86218
4685.000 13.93698
4690.000 13.82102
4695.000 13.71172
4700.000 13.49972
4705.000 13.41166
4710.000 13.45434
4715.000 13.57918
4720.000 13.70796
4725.000 13.56968
4730.000 13.38841
4735.000 13.32639
4740.000 13.39105
4745.000 13.43363
4750.000 13.35832
4755.000 13.19621
4760.000 13.01560
4765.000 12.90693
4770.000 13.00417
4775.000 13.06889
4780.000 13.06322
4785.000 13.01263
4790.000 12.96293
4795.000 12.96579
4800.000 12.91692
4805.000 12.80557
4810.000 12.81740
4815.000 12.76982
4820.000 12.57419
4825.000 12.42517
4830.000 12.32781
4835.000 12.10423
4840.000 11.79097
4845.000 11.39989
4850.000 10.52797
4855.000 8.79443
4860.000 7.38253
4865.000 8.13484
4870.000 9.79842
4875.000 10.71317
4880.000 11.21660
4885.000 11.48853
4890.000 11.65616
4895.000 12.02080
4900.000 12.27292
4905.000 12.35257
4910.000 12.31562
4915.000 12.15550
4920.000 11.93937
4925.000 12.04431
4930.000 12.34614
4935.000 12.30071
4940.000 12.30447
4945.000 12.47691
4950.000 12.58282
4955.000 12.43834
4960.000 12.40777
4965.000 12.51449
4970.000 12.41336
4975.000 12.24124
4980.000 11.99039
4985.000 12.00367
4990.000 12.24859
4995.000 12.19396
5000.000 11.92250
5005.000 11.72171
5010.000 11.78220
5015.000 11.65250
5020.000 11.57448
5025.000 11.78436
5030.000 11.91371
5035.000 11.87395
5040.000 11.67411
5045.000 11.72051
5050.000 11.89416
5055.000 11.87385
5060.000 11.98627
5065.000 11.78140
5070.000 11.59484
5075.000 11.51772
5080.000 11.50478
5085.000 11.67237
5090.000 11.79808
5095.000 11.69544
5100.000 11.55297
5105.000 11.61042
5110.000 11.66215
5115.000 11.68032
5120.000 11.59057
5125.000 11.46705
5130.000 11.38353
5135.000 11.30977
5140.000 11.25448
5145.000 11.31120
5150.000 11.36743
5155.000 11.45012
5160.000 11.27293
5165.000 10.68876
5170.000 10.39299
5175.000 10.77101
5180.000 11.03752
5185.000 10.81271
5190.000 10.74417
5195.000 10.85650
5200.000 10.92403
5205.000 10.85909
5210.000 10.96161
5215.000 11.17916
5220.000 11.19196
5225.000 10.90193
5230.000 10.68105
5235.000 10.85076
5240.000 11.11897
5245.000 11.18429
5250.000 11.11664
5255.000 11.03692
5260.000 10.75399
5265.000 10.33986
5270.000 10.26598
5275.000 10.45692
5280.000 10.69215
5285.000 10.89347
5290.000 11.08934
5295.000 11.03314
5300.000 10.89599
5305.000 10.91563
5310.000 10.96699
5315.000 10.84500
5320.000 10.69133
5325.000 10.56007
5330.000 10.52401
5335.000 10.58642
5340.000 10.64015
5345.000 10.72716
5350.000 10.77567
5355.000 10.86174
5360.000 10.80108
5365.000 10.53848
5370.000 10.43229
5375.000 10.61567
5380.000 10.66270
5385.000 10.66023
5390.000 10.64996
5395.000 10.46206
5400.000 10.33711
5405.000 10.29610
5410.000 10.33013
5415.000 10.43701
5420.000 10.46928
5425.000 10.40917
5430.000 10.40191
5435.000 10.45991
5440.000 10.56633
5445.000 10.47301
5450.000 10.38172
5455.000 10.37457
5460.000 10.40229
5465.000 10.42191
5470.000 10.42546
5475.000 10.35060
5480.000 10.27248
5485.000 10.36483
5490.000 10.43914
5495.000 10.39353
5500.000 10.28042
5505.000 10.18729
5510.000 10.22753
5515.000 10.30280
5520.000 10.29338
5525.000 10.13714
5530.000 10.03074
5535.000 10.10708
5540.000 10.16984
5545.000 10.18979
5550.000 10.24639
5555.000 10.25247
5560.000 10.18840
5565.000 10.08784
5570.000 9.94772
5575.000 9.99099
5580.000 10.05059
5585.000 9.83604
5590.000 9.64406
5595.000 9.62823
5600.000 9.69099
5605.000 9.87204
5610.000 9.98445
5615.000 9.88362
5620.000 9.80990
5625.000 9.84925
5630.000 9.88547
5635.000 9.86293
5640.000 9.83299
5645.000 9.89811
5650.000 9.88515
5655.000 9.69019
5660.000 9.53339
5665.000 9.55267
5670.000 9.68200
5675.000 9.73713
5680.000 9.67705
5685.000 9.57904
5690.000 9.60496
5695.000 9.65462
5700.000 9.66154
5705.000 9.55455
5710.000 9.45958
5715.000 9.50497
5720.000 9.61500
5725.000 9.64747
5730.000 9.62007
5735.000 9.58919
5740.000 9.58037
5745.000 9.55399
5750.000 9.49590
5755.000 9.47941
5760.000 9.49841
5765.000 9.47019
5770.000 9.48882
5775.000 9.48712
5780.000 9.43067
5785.000 9.38312
5790.000 9.38814
5795.000 9.37739
5800.000 9.40412
5805.000 9.43533
5810.000 9.38630
5815.000 9.35713
5820.000 9.40301
5825.000 9.40660
5830.000 9.39579
5835.000 9.40103
5840.000 9.42044
5845.000 9.38861
5850.000 9.29959
5855.000 9.18511
5860.000 9.12976
5865.000 9.21032
5870.000 9.29101
5875.000 9.26847
5880.000 9.24129
5885.000 9.00600
5890.000 8.69986
5895.000 8.65772
5900.000 8.88174
5905.000 9.06945
5910.000 9.07937
5915.000 9.04982
5920.000 9.03016
5925.000 9.01485
5930.000 8.95858
5935.000 8.94614
5940.000 8.93064
5945.000 8.87694
5950.000 8.83720
5955.000 8.82841
5960.000 8.83282
5965.000 8.83452
5970.000 8.82106
5975.000 8.79660
5980.000 8.71911
5985.000 8.66436
5990.000 8.66537
5995.000 8.71423
6000.000 8.66881
6005.000 8.58088
6010.000 8.53696
6015.000 8.50243
6020.000 8.47516
6025.000 8.47503
6030.000 8.52665
6035.000 8.53343
6040.000 8.47957
6045.000 8.47994
6050.000 8.53330
6055.000 8.55980
6060.000 8.56467
6065.000 8.53344
6070.000 8.51894
6075.000 8.47406
6080.000 8.43861
6085.000 8.41721
6090.000 8.41714
6095.000 8.38476
6100.000 8.28599
6105.000 8.28812
6110.000 8.35372
6115.000 8.31399
6120.000 8.24843
6125.000 8.27604
6130.000 8.26737
6135.000 8.16683
6140.000 8.11516
6145.000 8.12164
6150.000 8.17973
6155.000 8.14105
6160.000 8.03628
6165.000 7.99192
6170.000 8.03382
6175.000 8.12902
6180.000 8.18418
6185.000 8.12624
6190.000 8.08932
6195.000 8.14062
6200.000 8.19054
6205.000 8.15737
6210.000 8.10508
6215.000 8.07613
6220.000 8.05487
6225.000 8.05159
6230.000 8.01516
6235.000 7.96962
6240.000 7.96225
6245.000 7.90120
6250.000 7.89085
6255.000 7.93904
6260.000 8.00091
6265.000 8.02767
6270.000 7.99166
6275.000 7.85922
6280.000 7.76318
6285.000 7.86570
6290.000 7.94135
6295.000 7.91681
6300.000 7.88454
6305.000 7.88702
6310.000 7.88133
6315.000 7.84314
6320.000 7.81173
6325.000 7.84522
6330.000 7.82274
6335.000 7.78552
6340.000 7.75510
6345.000 7.70595
6350.000 7.72129
6355.000 7.75067
6360.000 7.74543
6365.000 7.70235
6370.000 7.67212
6375.000 7.67841
6380.000 7.68065
6385.000 7.70696
6390.000 7.70988
6395.000 7.67151
6400.000 7.63314
6405.000 7.60636
6410.000 7.55688
6415.000 7.53926
6420.000 7.53802
6425.000 7.57325
6430.000 7.55528
6435.000 7.51217
6440.000 7.51233
6445.000 7.52022
6450.000 7.48172
6455.000 7.38787
6460.000 7.33746
6465.000 7.38540
6470.000 7.43281
6475.000 7.44047
6480.000 7.44124
6485.000 7.35375
6490.000 7.22935
6495.000 7.17018
6500.000 7.27930
6505.000 7.38106
6510.000 7.35109
6515.000 7.26524
6520.000 7.26636
6525.000 7.26913
6530.000 7.22390
6535.000 7.13078
6540.000 7.01636
6545.000 6.83675
6550.000 6.48770
6555.000 5.72876
6560.000 4.91330
6565.000 5.09727
6570.000 6.00176
6575.000 6.55427
6580.000 6.77561
6585.000 6.88107
6590.000 6.94055
6595.000 7.01345
6600.000 7.10301
6605.000 7.11517
6610.000 7.10538
6615.000 7.09754
6620.000 7.11017
6625.000 7.13353
6630.000 7.11847
6635.000 7.11651
6640.000 7.12297
6645.000 7.10097
6650.000 7.09391
6655.000 7.08303
6660.000 7.07053
6665.000 7.06553
6670.000 7.04829
6675.000 7.00415
6680.000 6.99939
6685.000 7.01079
6690.000 7.01704
6695.000 7.01962
6700.000 7.02253
6705.000 6.97762
6710.000 6.94580
6715.000 6.91772
6720.000 6.88853
6725.000 6.90020
6730.000 6.91458
6735.000 6.92868
6740.000 6.89894
6745.000 6.86102
6750.000 6.81383
6755.000 6.79221
6760.000 6.80087
6765.000 6.82690
6770.000 6.82345
6775.000 6.82642
6780.000 6.81357
6785.000 6.81371
6790.000 6.82182
6795.000 6.80320
6800.000 6.80371
6805.000 6.77309
6810.000 6.76328
6815.000 6.73953
6820.000 6.71468
6825.000 6.68100
6830.000 6.65705
6835.000 6.66465
6840.000 6.71328
6845.000 6.69490
6850.000 6.69470
6855.000 6.68371
6860.000 6.65147
6865.000 6.72121
6870.000 6.71972
6875.000 6.62864
6880.000 6.62163
6885.000 6.62960
6890.000 6.62638
6895.000 6.61764
6900.000 6.61230
6905.000 6.61988
6910.000 6.62077
6915.000 6.60979
6920.000 6.59847
6925.000 6.58787
6930.000 6.56462
6935.000 6.55154
6940.000 6.55686
6945.000 6.53711
6950.000 6.54403
6955.000 6.55059
6960.000 6.52595
6965.000 6.52518
6970.000 6.53774
6975.000 6.46099
6980.000 6.42580
6985.000 6.41837
6990.000 6.37577
6995.000 6.33523
7000.000 6.30347
7005.000 6.27007
7010.000 6.30005
7015.000 6.29648
7020.000 6.27306
7025.000 6.26938
7030.000 6.29540
7035.000 6.29923
7040.000 6.28296
7045.000 6.30180
7050.000 6.31544
7055.000 6.29164
7060.000 6.26517
7065.000 6.25299
7070.000 6.27187
7075.000 6.27400
7080.000 6.24364
7085.000 6.21915
7090.000 6.18759
7095.000 6.19292
7100.000 6.19076
7105.000 6.19326
7110.000 6.14079
7115.000 6.08190
7120.000 6.11491
7125.000 6.16673
7130.000 6.19175
7135.000 6.20137
7140.000 6.16333
7145.000 6.10148
7150.000 6.07623
7155.000 6.10699
7160.000 6.09377
7165.000 5.98514
7170.000 5.88817
7175.000 5.81879
7180.000 5.75242
7185.000 5.68780
7190.000 5.63889
7195.000 5.65906
7200.000 5.65773
7205.000 5.72754
7210.000 5.86381
7215.000 5.97027
7220.000 5.97872
7225.000 5.92138
7230.000 5.84927
7235.000 5.77034
7240.000 5.70040
7245.000 5.68560
7250.000 5.68688
7255.000 5.66520
7260.000 5.71486
7265.000 5.73828
7270.000 5.74140
7275.000 5.68365
7280.000 5.67586
7285.000 5.61281
7290.000 5.57469
7295.000 5.60908
7300.000 5.68152
7305.000 5.65962
7310.000 5.61891
7315.000 5.62947
7320.000 5.62216
7325.000 5.60673
7330.000 5.60419
7335.000 5.62805
7340.000 5.69055
7345.000 5.70849
7350.000 5.65498
7355.000 5.63126
7360.000 5.62333
7365.000 5.60549
7370.000 5.60162
7375.000 5.61176
7380.000 5.60136
7385.000 5.52771
7390.000 5.47680
7395.000 5.51871
7400.000 5.55809
7405.000 5.56609
7410.000 5.52411
7415.000 5.49408
7420.000 5.48426
7425.000 5.57181
7430.000 5.62134
7435.000 5.65255
7440.000 5.61506
7445.000 5.54721
7450.000 5.51581
7455.000 5.53464
7460.000 5.54437
7465.000 5.56295
7470.000 5.57570
7475.000 5.54967
7480.000 5.50633
7485.000 5.51735
7490.000 5.53327
7495.000 5.50204
7500.000 5.45804
7505.000 5.43362
7510.000 5.41255
7515.000 5.40969
7520.000 5.43760
7525.000 5.43609
7530.000 5.41458
7535.000 5.41773
7540.000 5.45194
7545.000 5.47139
7550.000 5.45900
7555.000 5.43545
7560.000 5.42448
7565.000 5.41862
7570.000 5.40107
7575.000 5.38975
7580.000 5.39431
7585.000 5.37376
7590.000 5.38553
7595.000 5.44661
7600.000 5.48939
7605.000 5.41909
7610.000 5.25472
7615.000 5.15794
7620.000 5.22120
7625.000 5.31393
7630.000 5.30859
7635.000 5.25598
7640.000 5.24183
7645.000 5.24861
7650.000 5.24055
7655.000 5.22911
7660.000 5.22221
7665.000 5.20984
7670.000 5.23132
7675.000 5.25589
7680.000 5.25619
7685.000 5.24961
7690.000 5.24397
7695.000 5.23192
7700.000 5.22320
7705.000 5.23261
7710.000 5.23469
7715.000 5.21683
7720.000 5.19752
7725.000 5.19849
7730.000 5.20414
7735.000 5.20272
7740.000 5.18031
7745.000 5.13693
7750.000 5.10747
7755.000 5.11014
7760.000 5.12477
7765.000 5.11253
7770.000 5.03406
7775.000 4.90272
7780.000 4.86441
7785.000 4.98617
7790.000 5.08328
7795.000 5.08614
7800.000 5.05548
7805.000 5.04618
7810.000 5.04173
7815.000 5.04173
7820.000 5.05354
7825.000 5.05392
7830.000 5.01616
7835.000 4.98756
7840.000 4.98536
7845.000 4.99797
7850.000 5.00342
7855.000 4.99762
7860.000 4.99476
7865.000 4.99849
7870.000 4.98287
7875.000 4.94986
7880.000 4.92876
7885.000 4.94767
7890.000 4.95292
7895.000 4.88373
7900.000 4.83666
7905.000 4.86466
7910.000 4.89598
7915.000 4.88919
7920.000 4.86210
7925.000 4.83080
7930.000 4.80595
7935.000 4.81120
7940.000 4.83680
7945.000 4.82405
7950.000 4.78532
7955.000 4.80299
7960.000 4.81484
7965.000 4.82131
7970.000 4.83851
7975.000 4.83184
7980.000 4.82667
7985.000 4.82740
7990.000 4.81564
7995.000 4.79066
8000.000 4.74996
8005.000 4.73921
8010.000 4.75789
8015.000 4.76527
8020.000 4.76655
8025.000 4.74718
8030.000 4.72382
8035.000 4.72047
8040.000 4.71672
8045.000 4.68464
8050.000 4.66281
8055.000 4.68598
8060.000 4.70516
8065.000 4.71817
8070.000 4.72582
8075.000 4.72346
8080.000 4.72249
8085.000 4.69540
8090.000 4.66472
8095.000 4.65945
8100.000 4.65452
8105.000 4.66081
8110.000 4.66706
8115.000 4.66047
8120.000 4.65305
8125.000 4.64321
8130.000 4.61840
8135.000 4.57297
8140.000 4.52416
8145.000 4.49649
8150.000 4.46700
8155.000 4.43077
8160.000 4.41176
8165.000 4.36819
8170.000 4.34275
8175.000 4.33859
8180.000 4.30722
8185.000 4.30240
8190.000 4.30705
8195.000 4.26661
8200.000 4.23631
8205.000 4.34759
8210.000 4.47185
8215.000 4.48701
8220.000 4.39246
8225.000 4.21175
8230.000 4.07155
8235.000 4.17574
8240.000 4.40763
8245.000 4.44071
8250.000 4.38103
8255.000 4.33652
8260.000 4.33796
8265.000 4.41360
8270.000 4.43160
8275.000 4.34181
8280.000 4.26517
8285.000 4.24849
8290.000 4.28933
8295.000 4.32143
8300.000 4.32268
8305.000 4.31834
8310.000 4.28998
8315.000 4.24746
8320.000 4.23579
8325.000 4.26815
8330.000 4.23843
8335.000 4.18229
8340.000 4.18799
8345.000 4.23658
8350.000 4.28370
8355.000 4.28873
8360.000 4.27858
8365.000 4.27821
8370.000 4.27717
8375.000 4.26607
8380.000 4.24290
8385.000 4.21426
8390.000 4.20825
8395.000 4.22027
8400.000 4.23091
8405.000 4.22896
8410.000 4.21359
8415.000 4.20544
8420.000 4.21652
8425.000 4.24204
8430.000 4.26221
8435.000 4.24034
8440.000 4.17074
8445.000 4.08986
8450.000 4.08445
8455.000 4.15872
8460.000 4.20014
8465.000 4.14810
8470.000 4.10272
8475.000 4.11831
8480.000 4.16530
8485.000 4.19997
8490.000 4.13711
8495.000 3.88849
8500.000 3.76056
8505.000 3.89688
8510.000 4.02244
8515.000 4.05486
8520.000 4.04053
8525.000 4.03493
8530.000 4.01689
8535.000 3.86997
8540.000 3.60543
8545.000 3.38823
8550.000 3.45621
8555.000 3.65748
8560.000 3.87085
8565.000 3.95070
8570.000 3.93341
8575.000 3.94088
8580.000 3.94185
8585.000 3.91093
8590.000 3.85391
8595.000 3.74905
8600.000 3.72640
8605.000 3.79528
8610.000 3.86761
8615.000 3.92244
8620.000 3.95586
8625.000 3.97112
8630.000 3.98518
8635.000 4.00719
8640.000 4.00758
8645.000 3.96549
8650.000 3.90934
8655.000 3.82597
8660.000 3.57242
8665.000 3.34000
8670.000 3.37853
8675.000 3.60292
8680.000 3.81103
8685.000 3.79034
8690.000 3.78646
8695.000 3.98703
8700.000 3.75604
8705.000 3.74107
8710.000 3.72477
8715.000 3.71853
8720.000 3.72398
8725.000 3.70638
8730.000 3.64923
8735.000 3.57641
8740.000 3.50848
8745.000 3.33535
8750.000 3.23331
8755.000 3.37988
8760.000 3.56062
8765.000 3.65289
8770.000 3.68625
8775.000 3.71742
8780.000 3.72841
8785.000 3.71520
8790.000 3.70637
8795.000 3.71168
8800.000 3.69489
8805.000 3.64138
8810.000 3.64416
8815.000 3.69839
8820.000 3.67829
8825.000 3.65442
8830.000 3.63251
8835.000 3.61068
8840.000 3.61387
8845.000 3.60888
8850.000 3.55367
8855.000 3.38386
8860.000 3.15217
8865.000 3.17337
8870.000 3.35089
8875.000 3.48788
8880.000 3.53518
8885.000 3.58595
8890.000 3.61766
8895.000 3.62407
8900.000 3.62995
8905.000 3.61883
8910.000 3.57439
8915.000 3.58124
8920.000 3.63405
8925.000 3.55397
8930.000 3.57716
8935.000 3.64164
8940.000 3.59994
8945.000 3.57135
8950.000 3.55750
8955.000 3.54513
8960.000 3.53618
8965.000 3.53317
8970.000 3.52825
8975.000 3.53913
8980.000 3.49347
8985.000 3.34958
8990.000 3.45562
8995.000 3.49137
9000.000 3.33043
9005.000 3.26852
9010.000 3.12487
9015.000 3.09327
9020.000 3.22033
9025.000 3.32388
9030.000 3.47638
9035.000 3.53520
9040.000 3.50717
9045.000 3.53414
9050.000 3.55612
9055.000 3.48641
9060.000 3.38774
9065.000 3.39087
9070.000 3.47822
9075.000 3.44412
9080.000 3.37133
9085.000 3.39651
9090.000 3.37096
9095.000 3.37246
9100.000 3.42421
9105.000 3.45748
9110.000 3.42754
9115.000 3.41909
9120.000 3.46365
9125.000 3.47702
9130.000 3.39160
9135.000 3.45003
9140.000 3.54327
9145.000 3.47152
9150.000 3.31148
9155.000 3.38584
9160.000 3.49838
9165.000 3.43371
9170.000 3.32028
9175.000 3.38115
9180.000 3.46981
9185.000 3.45353
9190.000 3.40674
9195.000 3.42640
9200.000 3.41596
9205.000 3.32568
9210.000 3.22052
9215.000 3.15472
9220.000 3.10189
9225.000 3.00664
9230.000 2.91866
9235.000 3.01488
9240.000 3.13249
9245.000 3.21086
9250.000 3.26539
9255.000 3.22446
9260.000 3.22652
9265.000 3.28669
9270.000 3.31364
9275.000 3.27450
9280.000 3.25144
9285.000 3.26603
9290.000 3.25483
9295.000 3.17602
9300.000 3.18143
9305.000 3.20715
9310.000 3.16299
9315.000 3.10300
9320.000 3.08340
9325.000 3.10654
9330.000 3.06333
9335.000 2.91159
9340.000 2.97275
9345.000 3.12190
9350.000 3.15403
9355.000 3.09114
9360.000 3.10048
9365.000 3.05782
9370.000 2.97007
9375.000 2.99169
9380.000 3.09903
9385.000 3.25234
9390.000 3.30568
9395.000 3.18446
9400.000 3.07894
9405.000 2.99603
9410.000 2.98853
9415.000 3.04274
9420.000 2.99056
9425.000 3.05747
9430.000 3.12460
9435.000 3.03224
9440.000 3.00178
9445.000 3.12190
9450.000 3.10057
9455.000 2.93280
9460.000 3.05046
9465.000 3.11485
9470.000 3.06220
9475.000 3.01504
9480.000 3.03769
9485.000 3.17854
9490.000 3.05236
9495.000 2.81911
9500.000 3.05354
9505.000 3.23094
9510.000 3.09708
9515.000 2.88115
9520.000 2.89469
9525.000 2.97816
9530.000 3.00092
9535.000 2.90499
9540.000 2.73677
9545.000 2.66569
9550.000 2.68952
9555.000 2.78752
9560.000 2.91419
9565.000 2.95516
9570.000 3.02525
9575.000 3.06360
9580.000 2.97573
9585.000 2.90827
9590.000 2.92716
9595.000 2.98643
9600.000 3.01517
9605.000 3.01454
9610.000 3.05866
9615.000 3.00974
9620.000 2.91022
9625.000 3.04063
9630.000 3.05961
9635.000 2.99860
9640.000 3.01034
9645.000 3.04380
9650.000 3.02802
9655.000 2.93675
9660.000 2.88919
9665.000 3.00762
9670.000 3.08276
9675.000 3.06352
9680.000 3.04319
9685.000 3.08890
9690.000 3.10045
9695.000 3.06461
9700.000 3.04738
9705.000 3.08224
9710.000 3.08002
9715.000 3.05212
9720.000 3.01523
9725.000 2.99399
9730.000 2.99765
9735.000 3.00949
9740.000 3.00882
9745.000 2.99089
9750.000 2.97406
9755.000 2.96479
9760.000 2.97317
9765.000 2.99749
9770.000 3.01302
9775.000 3.04715
9780.000 3.05201
9785.000 3.03333
9790.000 2.99976
9795.000 2.96410
9800.000 2.93912
9805.000 2.93361
9810.000 2.94041
9815.000 2.94832
9820.000 2.94618
9825.000 2.92634
9830.000 2.89525
9835.000 2.86289
9840.000 2.83923
9845.000 2.83164
9850.000 2.83704
9855.000 2.84970
9860.000 2.86395
9865.000 2.87505
9870.000 2.88222
9875.000 2.88566
9880.000 2.88557
9885.000 2.88245
9890.000 2.87810
9895.000 2.87460
9900.000 2.87408
9905.000 2.87794
9910.000 2.88502
9915.000 2.89347
9920.000 2.90144
9925.000 2.90742
9930.000 2.91129
9935.000 2.91324
9940.000 2.91349
9945.000 2.91188
9950.000 2.90691
9955.000 2.89669
9960.000 2.87939
9965.000 2.85449
9970.000 2.82701
9975.000 2.80333
9980.000 2.78983
9985.000 2.79022
9990.000 2.79760
9995.000 2.80239
10000.000 2.79503
10005.000 2.76868
10010.000 2.72760
10015.000 2.67881
10020.000 2.62929
10025.000 2.58498
10030.000 2.54743
10035.000 2.51710
10040.000 2.49449
10045.000 2.48054
10050.000 2.47823
10055.000 2.49107
10060.000 2.52252
10065.000 2.57317
10070.000 2.63190
10075.000 2.68473
10080.000 2.71762
10085.000 2.72128
10090.000 2.70504
10095.000 2.68292
10100.000 2.66894
10105.000 2.67308
10110.000 2.68900
10115.000 2.70631
10120.000 2.71462
10125.000 2.70657
10130.000 2.68689
10135.000 2.66336
10140.000 2.64372
10145.000 2.63390
10150.000 2.63242
10155.000 2.63596
10160.000 2.64117
10165.000 2.64553
10170.000 2.64954
10175.000 2.65452
10180.000 2.66180
10185.000 2.67208
10190.000 2.68375
10195.000 2.69460
10200.000 2.70240
10205.000 2.70497
10210.000 2.70017
10215.000 2.68589
10220.000 2.66001
10225.000 2.62254
10230.000 2.58209
10235.000 2.54942
10240.000 2.53525
10245.000 2.54627
10250.000 2.57290
10255.000 2.60146
10260.000 2.61834
10265.000 2.61343
10270.000 2.59096
10275.000 2.55869
10280.000 2.52442
10285.000 2.49518
10290.000 2.47504
10295.000 2.46732
10300.000 2.47536
10305.000 2.52986
10310.000 2.54539
10315.000 2.56069
10320.000 2.57092
10325.000 2.57242
10330.000 2.56671
10335.000 2.55654
10340.000 2.54465
10345.000 2.53360
10350.000 2.52501
10355.000 2.52036
10360.000 2.52106
10365.000 2.52771
10370.000 2.53737
10375.000 2.54625
10380.000 2.55057
10385.000 2.54756
10390.000 2.53844
10395.000 2.52546
10400.000 2.51089
10405.000 2.49672
10410.000 2.48403
10415.000 2.47370
10420.000 2.46654
10425.000 2.46298
10430.000 2.46155
10435.000 2.46036
10440.000 2.45753
10445.000 2.45172
10450.000 2.44391
10455.000 2.43568
10460.000 2.42858
10465.000 2.42409
10470.000 2.42328
10475.000 2.42718
10480.000 2.43676
10485.000 2.45183
10490.000 2.46735
10495.000 2.47707
10500.000 2.47477
10505.000 2.45688
10510.000 2.43052
10515.000 2.40551
10520.000 2.39165
10525.000 2.39560
10530.000 2.41143
10535.000 2.43010
10540.000 2.44251
10545.000 2.44209
10550.000 2.43206
10555.000 2.41814
10560.000 2.40602
10565.000 2.39972
10570.000 2.39659
10575.000 2.39222
10580.000 2.38227
10585.000 2.36415
10590.000 2.34235
10595.000 2.32316
10600.000 2.31285
10605.000 2.31602
10610.000 2.33054
10615.000 2.35266
10620.000 2.37855
10625.000 2.35741
10630.000 2.35430
10635.000 2.35119
10640.000 2.34808
10645.000 2.34498
10650.000 2.34187
10655.000 2.33876
10660.000 2.33566
10665.000 2.33256
10670.000 2.32947
10675.000 2.32636
10680.000 2.32327
10685.000 2.32018
10690.000 2.31708
10695.000 2.31399
10700.000 2.31090
10705.000 2.30782
10710.000 2.30473
10715.000 2.30165
10720.000 2.29856
10725.000 2.29548
10730.000 2.29240
10735.000 2.28932
10740.000 2.28625
10745.000 2.28317
10750.000 2.28011
10755.000 2.27703
10760.000 2.27396
10765.000 2.27090
10770.000 2.26783
10775.000 2.26477
10780.000 2.26170
10785.000 2.25865
10790.000 2.25558
10795.000 2.25253
10800.000 2.24947
10805.000 2.24642
10810.000 2.24337
10815.000 2.24032
10820.000 2.23728
10825.000 2.23423
10830.000 2.23119
10835.000 2.22814
10840.000 2.22511
10845.000 2.22206
10850.000 2.21902
10855.000 2.21599
10860.000 2.21296
10865.000 2.20993
10870.000 2.20690
10875.000 2.20388
10880.000 2.20085
10885.000 2.19783
10890.000 2.19480
10895.000 2.19179
10900.000 2.18877
10905.000 2.18576
10910.000 2.18274
10915.000 2.17973
10920.000 2.17672
10925.000 2.17371
10930.000 2.17071
10935.000 2.16770
10940.000 2.16471
10945.000 2.16170
10950.000 2.15871
10955.000 2.15571
10960.000 2.15272
10965.000 2.14973
10970.000 2.14674
10975.000 2.14375
10980.000 2.14077
10985.000 2.13779
10990.000 2.13481
10995.000 2.13183
11000.000 2.12886
11005.000 2.12588
11010.000 2.12291
11015.000 2.11994
11020.000 2.11697
11025.000 2.11400
11030.000 2.11105
11035.000 2.10808
11040.000 2.10513
11045.000 2.10216
11050.000 2.09920
11055.000 2.09626
11060.000 2.09330
11065.000 2.09036
11070.000 2.08741
11075.000 2.08447
11080.000 2.08152
11085.000 2.07859
11090.000 2.07566
11095.000 2.07272
11100.000 2.06979
11105.000 2.06686
11110.000 2.06394
11115.000 2.06101
11120.000 2.05809
11125.000 2.05516
11130.000 2.05225
11135.000 2.04933
11140.000 2.04642
11145.000 2.04350
11150.000 2.04060
11155.000 2.03769
11160.000 2.03479
11165.000 2.03188
11170.000 2.02899
11175.000 2.02608
11180.000 2.02319
11185.000 2.02030
11190.000 2.01741
11195.000 2.01452
11200.000 2.01164
11205.000 2.00875
11210.000 2.00588
11215.000 2.00300
11220.000 2.00012
11225.000 1.99726
11230.000 1.99438
11235.000 1.99152
11240.000 1.98865
11245.000 1.98579
11250.000 1.98293
11255.000 1.98007
11260.000 1.97721
11265.000 1.97437
11270.000 1.97152
11275.000 1.96867
11280.000 1.96583
11285.000 1.96298
11290.000 1.96015
11295.000 1.95730
11300.000 1.95447
11305.000 1.95164
11310.000 1.94881
11315.000 1.94599
11320.000 1.94316
11325.000 1.94034
11330.000 1.93752
11335.000 1.93471
11340.000 1.93189
11345.000 1.92908
11350.000 1.92627
11355.000 1.92347
11360.000 1.92067
11365.000 1.91787
11370.000 1.91507
11375.000 1.91227
11380.000 1.90949
11385.000 1.90670
11390.000 1.90391
11395.000 1.90113
11400.000 1.89835
11405.000 1.89557
11410.000 1.89279
11415.000 1.89002
11420.000 1.88726
11425.000 1.88449
11430.000 1.88173
11435.000 1.87896
11440.000 1.87621
11445.000 1.87346
11450.000 1.87070
11455.000 1.86795
11460.000 1.86520
11465.000 1.86246
11470.000 1.85972
11475.000 1.85698
11480.000 1.85425
11485.000 1.85151
11490.000 1.84878
11495.000 1.84606
11500.000 1.84333
11505.000 1.84062
11510.000 1.83789
11515.000 1.83518
11520.000 1.83247
11525.000 1.82976
11530.000 1.82706
11535.000 1.82436
11540.000 1.82165
11545.000 1.81896
11550.000 1.81626
11555.000 1.81357
11560.000 1.81089
11565.000 1.80820
11570.000 1.80552
11575.000 1.80285
11580.000 1.80016
11585.000 1.79749
11590.000 1.79483
11595.000 1.79216
11600.000 1.78950
11605.000 1.78683
11610.000 1.78418
11615.000 1.78153
11620.000 1.77887
11625.000 1.77623
11630.000 1.77358
11635.000 1.77094
11640.000 1.76830
11645.000 1.76567
11650.000 1.76303
11655.000 1.76041
11660.000 1.75778
11665.000 1.75516
11670.000 1.75254
11675.000 1.74993
11680.000 1.74731
11685.000 1.74470
11690.000 1.74210
11695.000 1.73949
11700.000 1.73689
11705.000 1.73430
11710.000 1.73170
11715.000 1.72911
11720.000 1.72653
11725.000 1.72394
11730.000 1.72136
11735.000 1.71879
11740.000 1.71622
11745.000 1.71364
11750.000 1.71108
11755.000 1.70852
11760.000 1.70595
11765.000 1.70340
11770.000 1.70085
11775.000 1.69829
11780.000 1.69575
11785.000 1.69321
11790.000 1.69067
11795.000 1.68812
11800.000 1.68559
11805.000 1.68307
11810.000 1.68053
11815.000 1.67801
11820.000 1.67550
11825.000 1.67299
11830.000 1.67047
11835.000 1.66796
11840.000 1.66546
11845.000 1.66295
11850.000 1.66045
11855.000 1.65796
11860.000 1.65547
11865.000 1.65298
11870.000 1.65049
11875.000 1.64801
11880.000 1.64554
11885.000 1.64306
11890.000 1.64059
11895.000 1.63813
11900.000 1.63567
11905.000 1.63320
11910.000 1.63075
11915.000 1.62830
11920.000 1.62585
11925.000 1.62340
11930.000 1.62096
11935.000 1.61852
11940.000 1.61609
11945.000 1.61365
11950.000 1.61123
11955.000 1.60881
11960.000 1.60639
11965.000 1.60396
11970.000 1.60155
11975.000 1.59915
11980.000 1.59674
11985.000 1.59435
11990.000 1.59194
11995.000 1.58955
12000.000 1.58716
12005.000 1.58478
12010.000 1.58239
12015.000 1.58001
12020.000 1.57764
12025.000 1.57527
12030.000 1.57290
12035.000 1.57053
12040.000 1.56817
12045.000 1.56582
12050.000 1.56347
12055.000 1.56112
12060.000 1.55877
12065.000 1.55643
12070.000 1.55409
12075.000 1.55176
12080.000 1.54943
12085.000 1.54710
12090.000 1.54478
12095.000 1.54247
12100.000 1.54015
12105.000 1.53785
12110.000 1.53554
12115.000 1.53323
12120.000 1.53093
12125.000 1.52864
12130.000 1.52635
12135.000 1.52407
12140.000 1.52179
12145.000 1.51950
12150.000 1.51723
12155.000 1.51496
12160.000 1.51269
12165.000 1.51043
12170.000 1.50818
12175.000 1.50592
12180.000 1.50366
12185.000 1.50142
12190.000 1.49918
12195.000 1.49694
12200.000 1.49471
12205.000 1.49248
12210.000 1.49025
12215.000 1.48802
12220.000 1.48581
12225.000 1.48359
12230.000 1.48138
12235.000 1.47918
12240.000 1.47698
12245.000 1.47478
12250.000 1.47259
12255.000 1.47039
12260.000 1.46821
12265.000 1.46603
12270.000 1.46385
12275.000 1.46168
12280.000 1.45951
12285.000 1.45734
12290.000 1.45518
12295.000 1.45303
12300.000 1.45086
12305.000 1.44872
12310.000 1.44657
12315.000 1.44443
12320.000 1.44229
12325.000 1.44016
12330.000 1.43803
12335.000 1.43591
12340.000 1.43379
12345.000 1.43167
12350.000 1.42956
12355.000 1.42745
12360.000 1.42533
12365.000 1.42323
12370.000 1.42113
12375.000 1.41904
12380.000 1.41695
12385.000 1.41486
12390.000 1.41278
12395.000 1.41070
12400.000 1.40863
12405.000 1.40656
12410.000 1.40449
12415.000 1.40243
12420.000 1.40037
12425.000 1.39832
12430.000 1.39627
12435.000 1.39422
12440.000 1.39218
12445.000 1.39014
12450.000 1.38810
12455.000 1.38607
12460.000 1.38403
12465.000 1.38201
12470.000 1.37999
12475.000 1.37797
12480.000 1.37596
12485.000 1.37395
12490.000 1.37195
12495.000 1.36994
12500.000 1.36795
12505.000 1.36595
12510.000 1.36396
12515.000 1.36198
12520.000 1.36000
12525.000 1.35802
12530.000 1.35604
12535.000 1.35407
12540.000 1.35210
12545.000 1.35014
12550.000 1.34818
12555.000 1.34622
12560.000 1.34427
12565.000 1.34232
12570.000 1.34038
12575.000 1.33844
12580.000 1.33650
12585.000 1.33457
12590.000 1.33264
12595.000 1.33071
12600.000 1.32879
12605.000 1.32687
12610.000 1.32495
12615.000 1.32304
12620.000 1.32113
12625.000 1.31923
12630.000 1.31734
12635.000 1.31544
12640.000 1.31355
12645.000 1.31166
12650.000 1.30977
12655.000 1.30789
12660.000 1.30601
12665.000 1.30414
12670.000 1.30227
12675.000 1.30040
12680.000 1.29853
12685.000 1.29667
12690.000 1.29482
12695.000 1.29296
12700.000 1.29111
12705.000 1.28927
12710.000 1.28742
12715.000 1.28559
12720.000 1.28375
12725.000 1.28192
12730.000 1.28010
12735.000 1.27828
12740.000 1.27646
12745.000 1.27464
12750.000 1.27282
12755.000 1.27101
12760.000 1.26921
12765.000 1.26740
12770.000 1.26560
12775.000 1.26381
12780.000 1.26201
12785.000 1.26022
12790.000 1.25845
12795.000 1.25667
12800.000 1.25489
12805.000 1.25311
12810.000 1.25134
12815.000 1.24957
12820.000 1.24781
12825.000 1.24605
12830.000 1.24429
12835.000 1.24254
12840.000 1.24079
12845.000 1.23905
12850.000 1.23730
12855.000 1.23556
12860.000 1.23383
12865.000 1.23209
12870.000 1.23036
12875.000 1.22864
12880.000 1.22691
12885.000 1.22520
12890.000 1.22349
12895.000 1.22177
12900.000 1.22006
12905.000 1.21836
12910.000 1.21666
12915.000 1.21496
12920.000 1.21327
12925.000 1.21158
12930.000 1.20989
12935.000 1.20820
12940.000 1.20652
12945.000 1.20484
12950.000 1.20317
12955.000 1.20150
12960.000 1.19983
12965.000 1.19817
12970.000 1.19651
12975.000 1.19485
12980.000 1.19319
12985.000 1.19154
12990.000 1.18990
12995.000 1.18826
13000.000 1.18661
13005.000 1.18498
13010.000 1.18334
13015.000 1.18171
13020.000 1.18009
13025.000 1.17846
13030.000 1.17684
13035.000 1.17522
13040.000 1.17361
13045.000 1.17200
13050.000 1.17039
13055.000 1.16879
13060.000 1.16719
13065.000 1.16559
13070.000 1.16399
13075.000 1.16241
13080.000 1.16082
13085.000 1.15923
13090.000 1.15765
13095.000 1.15607
13100.000 1.15450
13105.000 1.15293
13110.000 1.15136
13115.000 1.14979
13120.000 1.14823
13125.000 1.14667
13130.000 1.14512
13135.000 1.14356
13140.000 1.14201
13145.000 1.14046
13150.000 1.13893
13155.000 1.13739
13160.000 1.13585
13165.000 1.13431
13170.000 1.13279
13175.000 1.13126
13180.000 1.12974
13185.000 1.12821
13190.000 1.12670
13195.000 1.12519
13200.000 1.12368
13205.000 1.12217
13210.000 1.12066
13215.000 1.11916
13220.000 1.11766
13225.000 1.11617
13230.000 1.11467
13235.000 1.11319
13240.000 1.11170
13245.000 1.11022
13250.000 1.10873
13255.000 1.10727
13260.000 1.10579
13265.000 1.10432
13270.000 1.10285
13275.000 1.10139
13280.000 1.09993
13285.000 1.09847
13290.000 1.09701
13295.000 1.09556
13300.000 1.09411
13305.000 1.09266
13310.000 1.09122
13315.000 1.08979
13320.000 1.08835
13325.000 1.08691
13330.000 1.08549
13335.000 1.08406
13340.000 1.08263
13345.000 1.08120
13350.000 1.07979
13355.000 1.07837
13360.000 1.07696
13365.000 1.07555
13370.000 1.07415
13375.000 1.07274
13380.000 1.07134
13385.000 1.06995
13390.000 1.06855
13395.000 1.06715
13400.000 1.06576
13405.000 1.06438
13410.000 1.06300
13415.000 1.06162
13420.000 1.06025
13425.000 1.05887
13430.000 1.05749
13435.000 1.05613
13440.000 1.05476
13445.000 1.05340
13450.000 1.05204
13455.000 1.05069
13460.000 1.04933
13465.000 1.04798
13470.000 1.04664
13475.000 1.04529
13480.000 1.04394
13485.000 1.04261
13490.000 1.04127
13495.000 1.03993
13500.000 1.03861
13505.000 1.03728
13510.000 1.03595
13515.000 1.03464
13520.000 1.03331
13525.000 1.03199
13530.000 1.03069
13535.000 1.02937
13540.000 1.02806
13545.000 1.02676
13550.000 1.02546
13555.000 1.02416
13560.000 1.02287
13565.000 1.02157
13570.000 1.02027
13575.000 1.01899
13580.000 1.01770
13585.000 1.01642
13590.000 1.01515
13595.000 1.01386
13600.000 1.01259
13605.000 1.01132
13610.000 1.01005
13615.000 1.00878
13620.000 1.00752
13625.000 1.00626
13630.000 1.00501
13635.000 1.00375
13640.000 1.00249
13645.000 1.00125
13650.000 1.00000
13655.000 0.99875
13660.000 0.99752
13665.000 0.99628
13670.000 0.99504
13675.000 0.99381
13680.000 0.99258
13685.000 0.99135
13690.000 0.99013
13695.000 0.98890
13700.000 0.98769
13705.000 0.98647
13710.000 0.98525
13715.000 0.98404
13720.000 0.98283
13725.000 0.98163
13730.000 0.98042
13735.000 0.97922
13740.000 0.97802
13745.000 0.97682
13750.000 0.97564
13755.000 0.97444
13760.000 0.97325
13765.000 0.97207
13770.000 0.97088
13775.000 0.96971
13780.000 0.96853
13785.000 0.96735
13790.000 0.96618
13795.000 0.96501
13800.000 0.96385
13805.000 0.96268
13810.000 0.96151
13815.000 0.96036
13820.000 0.95920
13825.000 0.95805
13830.000 0.95690
13835.000 0.95574
13840.000 0.95460
13845.000 0.95345
13850.000 0.95232
13855.000 0.95117
13860.000 0.95004
13865.000 0.94891
13870.000 0.94777
13875.000 0.94665
13880.000 0.94552
13885.000 0.94440
13890.000 0.94327
13895.000 0.94216
13900.000 0.94104
13905.000 0.93992
13910.000 0.93882
13915.000 0.93770
13920.000 0.93660
13925.000 0.93549
13930.000 0.93440
13935.000 0.93329
13940.000 0.93219
13945.000 0.93110
13950.000 0.93001
13955.000 0.92892
13960.000 0.92783
13965.000 0.92675
13970.000 0.92567
13975.000 0.92459
13980.000 0.92351
13985.000 0.92244
13990.000 0.92137
13995.000 0.92029
14000.000 0.91923
14005.000 0.91816
14010.000 0.91710
14015.000 0.91604
14020.000 0.91498
14025.000 0.91392
14030.000 0.91288
14035.000 0.91182
14040.000 0.91078
14045.000 0.90973
14050.000 0.90869
14055.000 0.90764
14060.000 0.90660
14065.000 0.90557
14070.000 0.90453
14075.000 0.90350
14080.000 0.90247
14085.000 0.90144
14090.000 0.90041
14095.000 0.89940
14100.000 0.89837
14105.000 0.89736
14110.000 0.89634
14115.000 0.89533
14120.000 0.89431
14125.000 0.89331
14130.000 0.89230
14135.000 0.89130
14140.000 0.89029
14145.000 0.88929
14150.000 0.88829
14155.000 0.88730
14160.000 0.88630
14165.000 0.88532
14170.000 0.88432
14175.000 0.88334
14180.000 0.88235
14185.000 0.88138
14190.000 0.88039
14195.000 0.87942
14200.000 0.87844
14205.000 0.87747
14210.000 0.87649
14215.000 0.87553
14220.000 0.87456
14225.000 0.87360
14230.000 0.87263
14235.000 0.87167
14240.000 0.87071
14245.000 0.86976
14250.000 0.86880
14255.000 0.86786
14260.000 0.86690
14265.000 0.86596
14270.000 0.86501
14275.000 0.86407
14280.000 0.86312
14285.000 0.86219
14290.000 0.86125
14295.000 0.86032
14300.000 0.85938
14305.000 0.85846
14310.000 0.85752
14315.000 0.85660
14320.000 0.85568
14325.000 0.85476
14330.000 0.85384
14335.000 0.85292
14340.000 0.85201
14345.000 0.85109
14350.000 0.85018
14355.000 0.84927
14360.000 0.84836
14365.000 0.84745
14370.000 0.84655
14375.000 0.84565
14380.000 0.84475
14385.000 0.84386
14390.000 0.84296
14395.000 0.84207
14400.000 0.84118
14405.000 0.84029
14410.000 0.83940
14415.000 0.83852
14420.000 0.83763
14425.000 0.83675
14430.000 0.83587
14435.000 0.83500
14440.000 0.83413
14445.000 0.83325
14450.000 0.83238
14455.000 0.83151
14460.000 0.83064
14465.000 0.82977
14470.000 0.82891
14475.000 0.82805
14480.000 0.82719
14485.000 0.82634
14490.000 0.82548
14495.000 0.82463
14500.000 0.82377
14505.000 0.82293
14510.000 0.82207
14515.000 0.82123
14520.000 0.82039
14525.000 0.81954
14530.000 0.81871
14535.000 0.81786
14540.000 0.81703
14545.000 0.81619
14550.000 0.81536
14555.000 0.81454
14560.000 0.81370
14565.000 0.81288
14570.000 0.81205
14575.000 0.81123
14580.000 0.81040
14585.000 0.80959
14590.000 0.80877
14595.000 0.80795
14600.000 0.80714
14605.000 0.80633
14610.000 0.80552
14615.000 0.80471
14620.000 0.80390
14625.000 0.80310
14630.000 0.80229
14635.000 0.80150
14640.000 0.80070
14645.000 0.79990
14650.000 0.79910
14655.000 0.79830
14660.000 0.79752
14665.000 0.79673
14670.000 0.79593
14675.000 0.79515
14680.000 0.79436
14685.000 0.79358
14690.000 0.79280
14695.000 0.79202
14700.000 0.79124
14705.000 0.79046
14710.000 0.78969
14715.000 0.78892
14720.000 0.78814
14725.000 0.78738
14730.000 0.78660
14735.000 0.78584
14740.000 0.78508
14745.000 0.78431
14750.000 0.78355
14755.000 0.78279
14760.000 0.78203
14765.000 0.78128
14770.000 0.78052
14775.000 0.77977
14780.000 0.77902
14785.000 0.77827
14790.000 0.77753
14795.000 0.77677
14800.000 0.77603
14805.000 0.77529
14810.000 0.77455
14815.000 0.77381
14820.000 0.77307
14825.000 0.77233
14830.000 0.77160
14835.000 0.77086
14840.000 0.77013
14845.000 0.76941
14850.000 0.76867
14855.000 0.76795
14860.000 0.76723
14865.000 0.76650
14870.000 0.76578
14875.000 0.76505
14880.000 0.76434
14885.000 0.76363
14890.000 0.76290
14895.000 0.76219
14900.000 0.76148
14905.000 0.76077
14910.000 0.76006
14915.000 0.75936
14920.000 0.75864
14925.000 0.75794
14930.000 0.75723
14935.000 0.75653
14940.000 0.75584
14945.000 0.75513
14950.000 0.75444
14955.000 0.75375
14960.000 0.75305
14965.000 0.75236
14970.000 0.75167
14975.000 0.75097
14980.000 0.75029
14985.000 0.74960
14990.000 0.74891
14995.000 0.74823
15000.000 0.74755
15005.000 0.74686
15010.000 0.74619
15015.000 0.74550
15020.000 0.74483
15025.000 0.74416
15030.000 0.74348
15035.000 0.74281
15040.000 0.74214
15045.000 0.74146
15050.000 0.74080
15055.000 0.74014
15060.000 0.73946
15065.000 0.73880
15070.000 0.73814
15075.000 0.73748
15080.000 0.73682
15085.000 0.73616
15090.000 0.73550
15095.000 0.73485
15100.000 0.73420
15105.000 0.73354
15110.000 0.73289
15115.000 0.73224
15120.000 0.73159
15125.000 0.73094
15130.000 0.73030
15135.000 0.72965
15140.000 0.72901
15145.000 0.72837
15150.000 0.72772
15155.000 0.72708
15160.000 0.72645
15165.000 0.72581
15170.000 0.72517
15175.000 0.72454
15180.000 0.72390
15185.000 0.72327
15190.000 0.72265
15195.000 0.72202
15200.000 0.72138
15205.000 0.72076
15210.000 0.72014
15215.000 0.71951
15220.000 0.71889
15225.000 0.71827
15230.000 0.71764
15235.000 0.71702
15240.000 0.71641
15245.000 0.71579
15250.000 0.71517
15255.000 0.71456
15260.000 0.71394
15265.000 0.71333
15270.000 0.71272
15275.000 0.71211
15280.000 0.71150
15285.000 0.71090
15290.000 0.71030
15295.000 0.70968
15300.000 0.70908
15305.000 0.70848
15310.000 0.70788
15315.000 0.70728
15320.000 0.70668
15325.000 0.70608
15330.000 0.70548
15335.000 0.70489
15340.000 0.70429
15345.000 0.70370
15350.000 0.70311
15355.000 0.70252
15360.000 0.70192
15365.000 0.70134
15370.000 0.70075
15375.000 0.70016
15380.000 0.69958
15385.000 0.69900
15390.000 0.69841
15395.000 0.69783
15400.000 0.69725
15405.000 0.69667
15410.000 0.69609
15415.000 0.69551
15420.000 0.69494
15425.000 0.69435
15430.000 0.69378
15435.000 0.69321
15440.000 0.69264
15445.000 0.69206
15450.000 0.69149
15455.000 0.69093
15460.000 0.69035
15465.000 0.68979
15470.000 0.68922
15475.000 0.68866
15480.000 0.68809
15485.000 0.68753
15490.000 0.68697
15495.000 0.68640
15500.000 0.68584
15505.000 0.68529
15510.000 0.68473
15515.000 0.68416
15520.000 0.68361
15525.000 0.68306
15530.000 0.68250
15535.000 0.68194
15540.000 0.68139
15545.000 0.68085
15550.000 0.68029
15555.000 0.67974
15560.000 0.67919
15565.000 0.67864
15570.000 0.67809
15575.000 0.67755
15580.000 0.67701
15585.000 0.67646
15590.000 0.67592
15595.000 0.67538
15600.000 0.67483
15605.000 0.67429
15610.000 0.67375
15615.000 0.67321
15620.000 0.67267
15625.000 0.67213
15630.000 0.67160
15635.000 0.67107
15640.000 0.67053
15645.000 0.66999
15650.000 0.66946
15655.000 0.66892
15660.000 0.66839
15665.000 0.66787
15670.000 0.66734
15675.000 0.66680
15680.000 0.66628
15685.000 0.66575
15690.000 0.66523
15695.000 0.66470
15700.000 0.66417
15705.000 0.66365
15710.000 0.66313
15715.000 0.66260
15720.000 0.66208
15725.000 0.66156
15730.000 0.66104
15735.000 0.66052
15740.000 0.66000
15745.000 0.65949
15750.000 0.65896
15755.000 0.65845
15760.000 0.65794
15765.000 0.65742
15770.000 0.65690
15775.000 0.65639
15780.000 0.65588
15785.000 0.65537
15790.000 0.65485
15795.000 0.65435
15800.000 0.65384
15805.000 0.65333
15810.000 0.65282
15815.000 0.65231
15820.000 0.65181
15825.000 0.65130
15830.000 0.65079
15835.000 0.65029
15840.000 0.64978
15845.000 0.64927
15850.000 0.64877
15855.000 0.64827
15860.000 0.64777
15865.000 0.64726
15870.000 0.64677
15875.000 0.64627
15880.000 0.64577
15885.000 0.64527
15890.000 0.64477
15895.000 0.64427
15900.000 0.64378
15905.000 0.64328
15910.000 0.64278
15915.000 0.64229
15920.000 0.64180
15925.000 0.64130
15930.000 0.64081
15935.000 0.64032
15940.000 0.63983
15945.000 0.63933
15950.000 0.63884
15955.000 0.63835
15960.000 0.63786
15965.000 0.63737
15970.000 0.63688
15975.000 0.63640
15980.000 0.63591
15985.000 0.63542
15990.000 0.63493
15995.000 0.63445
16000.000 0.63396
16005.000 0.63347
16010.000 0.63299
16015.000 0.63251
16020.000 0.63203
16025.000 0.63154
16030.000 0.63106
16035.000 0.63058
16040.000 0.63010
16045.000 0.62961
16050.000 0.62913
16055.000 0.62865
16060.000 0.62817
16065.000 0.62769
16070.000 0.62721
16075.000 0.62674
16080.000 0.62626
16085.000 0.62578
16090.000 0.62530
16095.000 0.62483
16100.000 0.62435
16105.000 0.62388
16110.000 0.62340
16115.000 0.62292
16120.000 0.62245
16125.000 0.62198
16130.000 0.62150
16135.000 0.62103
16140.000 0.62056
16145.000 0.62009
16150.000 0.61961
16155.000 0.61914
16160.000 0.61867
16165.000 0.61820
16170.000 0.61772
16175.000 0.61725
16180.000 0.61678
16185.000 0.61632
16190.000 0.61584
16195.000 0.61537
16200.000 0.61491
16205.000 0.61444
16210.000 0.61397
16215.000 0.61350
16220.000 0.61303
16225.000 0.61257
16230.000 0.61210
16235.000 0.61163
16240.000 0.61117
16245.000 0.61070
16250.000 0.61024
16255.000 0.60976
16260.000 0.60930
16265.000 0.60884
16270.000 0.60838
16275.000 0.60791
16280.000 0.60744
16285.000 0.60698
16290.000 0.60652
16295.000 0.60605
16300.000 0.60559
16305.000 0.60513
16310.000 0.60467
16315.000 0.60421
16320.000 0.60374
16325.000 0.60328
16330.000 0.60282
16335.000 0.60236
16340.000 0.60189
16345.000 0.60143
16350.000 0.60097
16355.000 0.60051
16360.000 0.60004
16365.000 0.59959
16370.000 0.59913
16375.000 0.59867
16380.000 0.59820
16385.000 0.59775
16390.000 0.59729
16395.000 0.59683
16400.000 0.59638
16405.000 0.59591
16410.000 0.59545
16415.000 0.59500
16420.000 0.59454
16425.000 0.59408
16430.000 0.59362
16435.000 0.59317
16440.000 0.59271
16445.000 0.59225
16450.000 0.59179
16455.000 0.59134
16460.000 0.59088
16465.000 0.59043
16470.000 0.58997
16475.000 0.58951
16480.000 0.58906
16485.000 0.58861
16490.000 0.58814
16495.000 0.58769
16500.000 0.58724
16505.000 0.58679
16510.000 0.58632
16515.000 0.58587
16520.000 0.58542
16525.000 0.58497
16530.000 0.58452
16535.000 0.58406
16540.000 0.58361
16545.000 0.58316
16550.000 0.58270
16555.000 0.58224
16560.000 0.58179
16565.000 0.58134
16570.000 0.58090
16575.000 0.58044
16580.000 0.57999
16585.000 0.57954
16590.000 0.57909
16595.000 0.57864
16600.000 0.57818
16605.000 0.57773
16610.000 0.57729
16615.000 0.57684
16620.000 0.57638
16625.000 0.57593
16630.000 0.57549
16635.000 0.57504
16640.000 0.57458
16645.000 0.57414
16650.000 0.57369
16655.000 0.57325
16660.000 0.57280
16665.000 0.57234
16670.000 0.57190
16675.000 0.57145
16680.000 0.57101
16685.000 0.57055
16690.000 0.57011
16695.000 0.56967
16700.000 0.56922
16705.000 0.56878
16710.000 0.56832
16715.000 0.56788
16720.000 0.56744
16725.000 0.56699
16730.000 0.56654
16735.000 0.56610
16740.000 0.56566
16745.000 0.56522
16750.000 0.56476
16755.000 0.56432
16760.000 0.56388
16765.000 0.56344
16770.000 0.56300
16775.000 0.56255
16780.000 0.56211
16785.000 0.56167
16790.000 0.56122
16795.000 0.56077
16800.000 0.56033
16805.000 0.55990
16810.000 0.55946
16815.000 0.55902
16820.000 0.55857
16825.000 0.55813
16830.000 0.55769
16835.000 0.55725
16840.000 0.55680
16845.000 0.55637
16850.000 0.55593
16855.000 0.55549
16860.000 0.55505
16865.000 0.55461
16870.000 0.55417
16875.000 0.55373
16880.000 0.55330
16885.000 0.55285
16890.000 0.55241
16895.000 0.55198
16900.000 0.55154
16905.000 0.55111
16910.000 0.55066
16915.000 0.55023
16920.000 0.54979
16925.000 0.54936
16930.000 0.54891
16935.000 0.54848
16940.000 0.54804
16945.000 0.54761
16950.000 0.54718
16955.000 0.54673
16960.000 0.54630
16965.000 0.54587
16970.000 0.54543
16975.000 0.54499
16980.000 0.54456
16985.000 0.54413
16990.000 0.54369
16995.000 0.54326
17000.000 0.54282
17005.000 0.54239
17010.000 0.54196
17015.000 0.54153
17020.000 0.54109
17025.000 0.54066
17030.000 0.54023
17035.000 0.53980
17040.000 0.53937
17045.000 0.53893
17050.000 0.53850
17055.000 0.53807
17060.000 0.53764
17065.000 0.53720
17070.000 0.53677
17075.000 0.53634
17080.000 0.53592
17085.000 0.53549
17090.000 0.53505
17095.000 0.53462
17100.000 0.53419
17105.000 0.53377
17110.000 0.53333
17115.000 0.53290
17120.000 0.53248
17125.000 0.53205
17130.000 0.53162
17135.000 0.53119
17140.000 0.53076
17145.000 0.53034
17150.000 0.52991
17155.000 0.52949
17160.000 0.52905
17165.000 0.52863
17170.000 0.52820
17175.000 0.52778
17180.000 0.52734
17185.000 0.52692
17190.000 0.52650
17195.000 0.52607
17200.000 0.52565
17205.000 0.52522
17210.000 0.52479
17215.000 0.52437
17220.000 0.52395
17225.000 0.52352
17230.000 0.52310
17235.000 0.52267
17240.000 0.52225
17245.000 0.52183
17250.000 0.52140
17255.000 0.52098
17260.000 0.52056
17265.000 0.52014
17270.000 0.51972
17275.000 0.51929
17280.000 0.51887
17285.000 0.51845
17290.000 0.51803
17295.000 0.51760
17300.000 0.51718
17305.000 0.51676
17310.000 0.51634
17315.000 0.51592
17320.000 0.51550
17325.000 0.51508
17330.000 0.51466
17335.000 0.51424
17340.000 0.51383
17345.000 0.51340
17350.000 0.51298
17355.000 0.51256
17360.000 0.51215
17365.000 0.51172
17370.000 0.51131
17375.000 0.51089
17380.000 0.51047
17385.000 0.51006
17390.000 0.50963
17395.000 0.50922
17400.000 0.50880
17405.000 0.50839
17410.000 0.50797
17415.000 0.50755
17420.000 0.50714
17425.000 0.50672
17430.000 0.50631
17435.000 0.50588
17440.000 0.50547
17445.000 0.50506
17450.000 0.50465
17455.000 0.50423
17460.000 0.50381
17465.000 0.50340
17470.000 0.50299
17475.000 0.50257
17480.000 0.50216
17485.000 0.50174
17490.000 0.50133
17495.000 0.50092
17500.000 0.50051
17505.000 0.50010
17510.000 0.49968
17515.000 0.49927
17520.000 0.49886
17525.000 0.49845
17530.000 0.49803
17535.000 0.49762
17540.000 0.49721
17545.000 0.49680
17550.000 0.49639
17555.000 0.49597
17560.000 0.49557
17565.000 0.49516
17570.000 0.49475
17575.000 0.49434
17580.000 0.49392
17585.000 0.49352
17590.000 0.49311
17595.000 0.49270
17600.000 0.49230
17605.000 0.49188
17610.000 0.49147
17615.000 0.49107
17620.000 0.49066
17625.000 0.49026
17630.000 0.48984
17635.000 0.48944
17640.000 0.48903
17645.000 0.48863
17650.000 0.48822
17655.000 0.48781
17660.000 0.48740
17665.000 0.48700
17670.000 0.48660
17675.000 0.48618
17680.000 0.48578
17685.000 0.48538
17690.000 0.48497
17695.000 0.48457
17700.000 0.48416
17705.000 0.48375
17710.000 0.48335
17715.000 0.48295
17720.000 0.48255
17725.000 0.48214
17730.000 0.48174
17735.000 0.48134
17740.000 0.48093
17745.000 0.48053
17750.000 0.48012
17755.000 0.47972
17760.000 0.47932
17765.000 0.47892
17770.000 0.47852
17775.000 0.47811
17780.000 0.47772
17785.000 0.47732
17790.000 0.47692
17795.000 0.47652
17800.000 0.47611
17805.000 0.47571
17810.000 0.47531
17815.000 0.47492
17820.000 0.47452
17825.000 0.47411
17830.000 0.47371
17835.000 0.47332
17840.000 0.47292
17845.000 0.47252
17850.000 0.47212
17855.000 0.47172
17860.000 0.47133
17865.000 0.47093
17870.000 0.47054
17875.000 0.47013
17880.000 0.46973
17885.000 0.46934
17890.000 0.46895
17895.000 0.46854
17900.000 0.46815
17905.000 0.46775
17910.000 0.46736
17915.000 0.46697
17920.000 0.46656
17925.000 0.46617
17930.000 0.46578
17935.000 0.46538
17940.000 0.46499
17945.000 0.46459
17950.000 0.46420
17955.000 0.46380
17960.000 0.46341
17965.000 0.46302
17970.000 0.46262
17975.000 0.46223
17980.000 0.46184
17985.000 0.46145
17990.000 0.46106
17995.000 0.46066
18000.000 0.46027
18005.000 0.45988
18010.000 0.45949
18015.000 0.45910
18020.000 0.45870
18025.000 0.45831
18030.000 0.45792
18035.000 0.45753
18040.000 0.45714
18045.000 0.45674
18050.000 0.45636
18055.000 0.45597
18060.000 0.45558
18065.000 0.45519
18070.000 0.45479
18075.000 0.45441
18080.000 0.45402
18085.000 0.45363
18090.000 0.45325
18095.000 0.45286
18100.000 0.45247
18105.000 0.45208
18110.000 0.45169
18115.000 0.45131
18120.000 0.45092
18125.000 0.45053
18130.000 0.45014
18135.000 0.44976
18140.000 0.44937
18145.000 0.44899
18150.000 0.44860
18155.000 0.44821
18160.000 0.44783
18165.000 0.44745
18170.000 0.44706
18175.000 0.44667
18180.000 0.44629
18185.000 0.44590
18190.000 0.44552
18195.000 0.44514
18200.000 0.44475
18205.000 0.44437
18210.000 0.44399
18215.000 0.44360
18220.000 0.44322
18225.000 0.44283
18230.000 0.44245
18235.000 0.44207
18240.000 0.44169
18245.000 0.44131
18250.000 0.44092
18255.000 0.44054
18260.000 0.44016
18265.000 0.43978
18270.000 0.43940
18275.000 0.43901
18280.000 0.43864
18285.000 0.43826
18290.000 0.43788
18295.000 0.43750
18300.000 0.43711
18305.000 0.43674
18310.000 0.43636
18315.000 0.43598
18320.000 0.43560
18325.000 0.43523
18330.000 0.43484
18335.000 0.43446
18340.000 0.43409
18345.000 0.43371
18350.000 0.43334
18355.000 0.43295
18360.000 0.43258
18365.000 0.43220
18370.000 0.43183
18375.000 0.43145
18380.000 0.43107
18385.000 0.43069
18390.000 0.43032
18395.000 0.42994
18400.000 0.42957
18405.000 0.42919
18410.000 0.42881
18415.000 0.42844
18420.000 0.42807
18425.000 0.42769
18430.000 0.42732
18435.000 0.42694
18440.000 0.42657
18445.000 0.42620
18450.000 0.42582
18455.000 0.42545
18460.000 0.42507
18465.000 0.42470
18470.000 0.42433
18475.000 0.42396
18480.000 0.42359
18485.000 0.42321
18490.000 0.42284
18495.000 0.42247
18500.000 0.42210
18505.000 0.42173
18510.000 0.42135
18515.000 0.42098
18520.000 0.42061
18525.000 0.42024
18530.000 0.41988
18535.000 0.41951
18540.000 0.41913
18545.000 0.41876
18550.000 0.41839
18555.000 0.41803
18560.000 0.41766
18565.000 0.41728
18570.000 0.41692
18575.000 0.41655
18580.000 0.41618
18585.000 0.41582
18590.000 0.41544
18595.000 0.41507
18600.000 0.41471
18605.000 0.41434
18610.000 0.41398
18615.000 0.41361
18620.000 0.41324
18625.000 0.41287
18630.000 0.41251
18635.000 0.41215
18640.000 0.41178
18645.000 0.41141
18650.000 0.41105
18655.000 0.41068
18660.000 0.41032
18665.000 0.40996
18670.000 0.40958
18675.000 0.40922
18680.000 0.40886
18685.000 0.40850
18690.000 0.40813
18695.000 0.40777
18700.000 0.40740
18705.000 0.40704
18710.000 0.40668
18715.000 0.40632
18720.000 0.40596
18725.000 0.40559
18730.000 0.40523
18735.000 0.40487
18740.000 0.40451
18745.000 0.40415
18750.000 0.40379
18755.000 0.40342
18760.000 0.40306
18765.000 0.40270
18770.000 0.40234
18775.000 0.40198
18780.000 0.40162
18785.000 0.40126
18790.000 0.40090
18795.000 0.40054
18800.000 0.40018
18805.000 0.39983
18810.000 0.39946
18815.000 0.39910
18820.000 0.39875
18825.000 0.39839
18830.000 0.39803
18835.000 0.39767
18840.000 0.39731
18845.000 0.39696
18850.000 0.39660
18855.000 0.39625
18860.000 0.39589
18865.000 0.39553
18870.000 0.39517
18875.000 0.39482
18880.000 0.39446
18885.000 0.39411
18890.000 0.39375
18895.000 0.39339
18900.000 0.39304
18905.000 0.39269
18910.000 0.39233
18915.000 0.39198
18920.000 0.39162
18925.000 0.39127
18930.000 0.39091
18935.000 0.39056
18940.000 0.39021
18945.000 0.38985
18950.000 0.38950
18955.000 0.38915
18960.000 0.38880
18965.000 0.38845
18970.000 0.38809
18975.000 0.38773
18980.000 0.38738
18985.000 0.38703
18990.000 0.38668
18995.000 0.38634
19000.000 0.38598
19005.000 0.38563
19010.000 0.38528
19015.000 0.38493
19020.000 0.38458
19025.000 0.38423
19030.000 0.38387
19035.000 0.38353
19040.000 0.38318
19045.000 0.38283
19050.000 0.38248
19055.000 0.38214
19060.000 0.38178
19065.000 0.38143
19070.000 0.38109
19075.000 0.38074
19080.000 0.38040
19085.000 0.38004
19090.000 0.37969
19095.000 0.37935
19100.000 0.37900
19105.000 0.37866
19110.000 0.37831
19115.000 0.37796
19120.000 0.37761
19125.000 0.37727
19130.000 0.37693
19135.000 0.37658
19140.000 0.37624
19145.000 0.37589
19150.000 0.37554
19155.000 0.37520
19160.000 0.37486
19165.000 0.37451
19170.000 0.37416
19175.000 0.37382
19180.000 0.37348
19185.000 0.37314
19190.000 0.37279
19195.000 0.37245
19200.000 0.37210
19205.000 0.37176
19210.000 0.37142
19215.000 0.37108
19220.000 0.37074
19225.000 0.37040
19230.000 0.37005
19235.000 0.36971
19240.000 0.36937
19245.000 0.36903
19250.000 0.36869
19255.000 0.36834
19260.000 0.36800
19265.000 0.36767
19270.000 0.36733
19275.000 0.36699
19280.000 0.36665
19285.000 0.36630
19290.000 0.36597
19295.000 0.36563
19300.000 0.36529
19305.000 0.36495
19310.000 0.36462
19315.000 0.36427
19320.000 0.36394
19325.000 0.36360
19330.000 0.36326
19335.000 0.36293
19340.000 0.36259
19345.000 0.36225
19350.000 0.36191
19355.000 0.36158
19360.000 0.36124
19365.000 0.36091
19370.000 0.36057
19375.000 0.36023
19380.000 0.35990
19385.000 0.35956
19390.000 0.35923
19395.000 0.35890
19400.000 0.35856
19405.000 0.35822
19410.000 0.35789
19415.000 0.35755
19420.000 0.35722
19425.000 0.35689
19430.000 0.35655
19435.000 0.35622
19440.000 0.35589
19445.000 0.35555
19450.000 0.35522
19455.000 0.35489
19460.000 0.35455
19465.000 0.35422
19470.000 0.35389
19475.000 0.35356
19480.000 0.35323
19485.000 0.35290
19490.000 0.35256
19495.000 0.35223
19500.000 0.35190
19505.000 0.35157
19510.000 0.35125
19515.000 0.35092
19520.000 0.35058
19525.000 0.35025
19530.000 0.34992
19535.000 0.34960
19540.000 0.34927
19545.000 0.34894
19550.000 0.34860
19555.000 0.34828
19560.000 0.34795
19565.000 0.34762
19570.000 0.34730
19575.000 0.34697
19580.000 0.34664
19585.000 0.34631
19590.000 0.34599
19595.000 0.34566
19600.000 0.34534
19605.000 0.34501
19610.000 0.34468
19615.000 0.34435
19620.000 0.34403
19625.000 0.34370
19630.000 0.34338
19635.000 0.34306
19640.000 0.34272
19645.000 0.34240
19650.000 0.34208
19655.000 0.34175
19660.000 0.34143
19665.000 0.34111
19670.000 0.34078
19675.000 0.34046
19680.000 0.34013
19685.000 0.33981
19690.000 0.33949
19695.000 0.33917
19700.000 0.33884
19705.000 0.33852
19710.000 0.33820
19715.000 0.33788
19720.000 0.33756
19725.000 0.33724
19730.000 0.33691
19735.000 0.33659
19740.000 0.33627
19745.000 0.33595
19750.000 0.33563
19755.000 0.33531
19760.000 0.33499
19765.000 0.33466
19770.000 0.33435
19775.000 0.33403
19780.000 0.33371
19785.000 0.33339
19790.000 0.33308
19795.000 0.33275
19800.000 0.33243
19805.000 0.33211
19810.000 0.33180
19815.000 0.33148
19820.000 0.33117
19825.000 0.33084
19830.000 0.33052
19835.000 0.33021
19840.000 0.32989
19845.000 0.32958
19850.000 0.32926
19855.000 0.32894
19860.000 0.32862
19865.000 0.32831
19870.000 0.32800
19875.000 0.32768
19880.000 0.32737
19885.000 0.32704
19890.000 0.32673
19895.000 0.32642
19900.000 0.32610
19905.000 0.32579
19910.000 0.32548
19915.000 0.32517
19920.000 0.32485
19925.000 0.32453
19930.000 0.32422
19935.000 0.32391
19940.000 0.32360
19945.000 0.32329
19950.000 0.32297
19955.000 0.32266
19960.000 0.32235
19965.000 0.32203
19970.000 0.32172
19975.000 0.32141
19980.000 0.32110
19985.000 0.32079
19990.000 0.32048
19995.000 0.32017
20000.000 0.31986
20005.000 0.31955
20010.000 0.31923
20015.000 0.31892
20020.000 0.31861
20025.000 0.31831
20030.000 0.31800
20035.000 0.31769
20040.000 0.31738
20045.000 0.31707
20050.000 0.31676
20055.000 0.31645
20060.000 0.31615
20065.000 0.31584
20070.000 0.31553
20075.000 0.31522
20080.000 0.31491
20085.000 0.31461
20090.000 0.31430
20095.000 0.31400
20100.000 0.31369
20105.000 0.31339
20110.000 0.31307
20115.000 0.31277
20120.000 0.31246
20125.000 0.31216
20130.000 0.31186
20135.000 0.31155
20140.000 0.31124
20145.000 0.31094
20150.000 0.31063
20155.000 0.31033
20160.000 0.31003
20165.000 0.30973
20170.000 0.30941
20175.000 0.30911
20180.000 0.30881
20185.000 0.30851
20190.000 0.30821
20195.000 0.30791
20200.000 0.30761
20205.000 0.30730
20210.000 0.30699
20215.000 0.30669
20220.000 0.30639
20225.000 0.30609
20230.000 0.30579
20235.000 0.30549
20240.000 0.30519
20245.000 0.30489
20250.000 0.30459
20255.000 0.30429
20260.000 0.30399
20265.000 0.30369
20270.000 0.30338
20275.000 0.30309
20280.000 0.30279
20285.000 0.30249
20290.000 0.30219
20295.000 0.30190
20300.000 0.30160
20305.000 0.30129
20310.000 0.30100
20315.000 0.30070
20320.000 0.30040
20325.000 0.30011
20330.000 0.29981
20335.000 0.29951
20340.000 0.29921
20345.000 0.29892
20350.000 0.29862
20355.000 0.29833
20360.000 0.29803
20365.000 0.29774
20370.000 0.29743
20375.000 0.29714
20380.000 0.29685
20385.000 0.29655
20390.000 0.29626
20395.000 0.29597
20400.000 0.29566
20405.000 0.29537
20410.000 0.29508
20415.000 0.29479
20420.000 0.29449
20425.000 0.29420
20430.000 0.29391
20435.000 0.29361
20440.000 0.29332
20445.000 0.29303
20450.000 0.29274
20455.000 0.29244
20460.000 0.29215
20465.000 0.29186
20470.000 0.29156
20475.000 0.29127
20480.000 0.29098
20485.000 0.29069
20490.000 0.29040
20495.000 0.29012
20500.000 0.28983
20505.000 0.28953
20510.000 0.28924
20515.000 0.28895
20520.000 0.28866
20525.000 0.28838
20530.000 0.28809
20535.000 0.28779
20540.000 0.28750
20545.000 0.28722
20550.000 0.28693
20555.000 0.28664
20560.000 0.28636
20565.000 0.28607
20570.000 0.28577
20575.000 0.28549
20580.000 0.28520
20585.000 0.28492
20590.000 0.28463
20595.000 0.28434
20600.000 0.28406
20605.000 0.28377
20610.000 0.28348
20615.000 0.28320
20620.000 0.28291
20625.000 0.28263
20630.000 0.28234
20635.000 0.28206
20640.000 0.28177
20645.000 0.28148
20650.000 0.28120
20655.000 0.28092
20660.000 0.28064
20665.000 0.28035
20670.000 0.28007
20675.000 0.27978
20680.000 0.27950
20685.000 0.27922
20690.000 0.27893
20695.000 0.27865
20700.000 0.27837
20705.000 0.27809
20710.000 0.27780
20715.000 0.27752
20720.000 0.27724
20725.000 0.27696
20730.000 0.27668
20735.000 0.27640
20740.000 0.27612
20745.000 0.27583
20750.000 0.27555
20755.000 0.27527
20760.000 0.27500
20765.000 0.27472
20770.000 0.27444
20775.000 0.27416
20780.000 0.27387
20785.000 0.27360
20790.000 0.27332
20795.000 0.27304
20800.000 0.27276
20805.000 0.27249
20810.000 0.27221
20815.000 0.27192
20820.000 0.27165
20825.000 0.27137
20830.000 0.27110
20835.000 0.27082
20840.000 0.27055
20845.000 0.27027
20850.000 0.26998
20855.000 0.26971
20860.000 0.26944
20865.000 0.26916
20870.000 0.26889
20875.000 0.26861
20880.000 0.26834
20885.000 0.26806
20890.000 0.26778
20895.000 0.26751
20900.000 0.26724
20905.000 0.26696
20910.000 0.26669
20915.000 0.26642
20920.000 0.26614
20925.000 0.26586
20930.000 0.26559
20935.000 0.26532
20940.000 0.26505
20945.000 0.26478
20950.000 0.26451
20955.000 0.26422
20960.000 0.26395
20965.000 0.26368
20970.000 0.26341
20975.000 0.26314
20980.000 0.26287
20985.000 0.26260
20990.000 0.26233
20995.000 0.26205
21000.000 0.26179
21005.000 0.26152
21010.000 0.26125
21015.000 0.26098
21020.000 0.26071
21025.000 0.26044
21030.000 0.26017
21035.000 0.25990
21040.000 0.25963
21045.000 0.25936
21050.000 0.25910
21055.000 0.25883
21060.000 0.25856
21065.000 0.25829
21070.000 0.25802
21075.000 0.25775
21080.000 0.25749
21085.000 0.25722
21090.000 0.25696
21095.000 0.25669
21100.000 0.25643
21105.000 0.25615
21110.000 0.25589
21115.000 0.25562
21120.000 0.25536
21125.000 0.25509
21130.000 0.25483
21135.000 0.25456
21140.000 0.25429
21145.000 0.25403
21150.000 0.25376
21155.000 0.25350
21160.000 0.25324
21165.000 0.25298
21170.000 0.25271
21175.000 0.25244
21180.000 0.25218
21185.000 0.25192
21190.000 0.25166
21195.000 0.25140
21200.000 0.25113
21205.000 0.25087
21210.000 0.25061
21215.000 0.25034
21220.000 0.25008
21225.000 0.24982
21230.000 0.24956
21235.000 0.24930
21240.000 0.24904
21245.000 0.24878
21250.000 0.24851
21255.000 0.24825
21260.000 0.24799
21265.000 0.24774
21270.000 0.24748
21275.000 0.24722
21280.000 0.24696
21285.000 0.24670
21290.000 0.24644
21295.000 0.24618
21300.000 0.24592
21305.000 0.24566
21310.000 0.24541
21315.000 0.24515
21320.000 0.24489
21325.000 0.24464
21330.000 0.24437
21335.000 0.24412
21340.000 0.24386
21345.000 0.24360
21350.000 0.24335
21355.000 0.24309
21360.000 0.24284
21365.000 0.24257
21370.000 0.24232
21375.000 0.24207
21380.000 0.24181
21385.000 0.24156
21390.000 0.24130
21395.000 0.24105
21400.000 0.24080
21405.000 0.24053
21410.000 0.24028
21415.000 0.24003
21420.000 0.23978
21425.000 0.23952
21430.000 0.23927
21435.000 0.23902
21440.000 0.23877
21445.000 0.23851
21450.000 0.23825
21455.000 0.23800
21460.000 0.23775
21465.000 0.23750
21470.000 0.23725
21475.000 0.23700
21480.000 0.23675
21485.000 0.23649
21490.000 0.23624
21495.000 0.23599
21500.000 0.23574
21505.000 0.23549
21510.000 0.23524
21515.000 0.23500
21520.000 0.23474
21525.000 0.23449
21530.000 0.23424
21535.000 0.23399
21540.000 0.23374
21545.000 0.23350
21550.000 0.23325
21555.000 0.23300
21560.000 0.23274
21565.000 0.23250
21570.000 0.23225
21575.000 0.23200
21580.000 0.23176
21585.000 0.23151
21590.000 0.23127
21595.000 0.23102
21600.000 0.23077
21605.000 0.23052
21610.000 0.23028
21615.000 0.23003
21620.000 0.22979
21625.000 0.22954
21630.000 0.22930
21635.000 0.22905
21640.000 0.22880
21645.000 0.22856
21650.000 0.22831
21655.000 0.22807
21660.000 0.22783
21665.000 0.22758
21670.000 0.22734
21675.000 0.22710
21680.000 0.22684
21685.000 0.22660
21690.000 0.22636
21695.000 0.22612
21700.000 0.22588
21705.000 0.22564
21710.000 0.22539
21715.000 0.22515
21720.000 0.22490
21725.000 0.22466
21730.000 0.22442
21735.000 0.22418
21740.000 0.22394
21745.000 0.22370
21750.000 0.22346
21755.000 0.22322
21760.000 0.22297
21765.000 0.22274
21770.000 0.22250
21775.000 0.22226
21780.000 0.22202
21785.000 0.22178
21790.000 0.22154
21795.000 0.22131
21800.000 0.22107
21805.000 0.22082
21810.000 0.22058
21815.000 0.22035
21820.000 0.22011
21825.000 0.21987
21830.000 0.21964
21835.000 0.21940
21840.000 0.21916
21845.000 0.21892
21850.000 0.21868
21855.000 0.21845
21860.000 0.21821
21865.000 0.21798
21870.000 0.21774
21875.000 0.21751
21880.000 0.21727
21885.000 0.21703
21890.000 0.21679
21895.000 0.21656
21900.000 0.21633
21905.000 0.21609
21910.000 0.21586
21915.000 0.21563
21920.000 0.21539
21925.000 0.21516
21930.000 0.21492
21935.000 0.21469
21940.000 0.21445
21945.000 0.21422
21950.000 0.21399
21955.000 0.21376
21960.000 0.21353
21965.000 0.21330
21970.000 0.21305
21975.000 0.21282
21980.000 0.21259
21985.000 0.21236
21990.000 0.21213
21995.000 0.21190
22000.000 0.21167
22005.000 0.21144
22010.000 0.21121
22015.000 0.21097
22020.000 0.21075
22025.000 0.21052
22030.000 0.21029
22035.000 0.21006
22040.000 0.20983
22045.000 0.20960
22050.000 0.20937
22055.000 0.20914
22060.000 0.20891
22065.000 0.20868
22070.000 0.20846
22075.000 0.20823
22080.000 0.20800
22085.000 0.20777
22090.000 0.20755
22095.000 0.20732
22100.000 0.20709
22105.000 0.20686
22110.000 0.20663
22115.000 0.20641
22120.000 0.20618
22125.000 0.20596
22130.000 0.20573
22135.000 0.20551
22140.000 0.20528
22145.000 0.20505
22150.000 0.20483
22155.000 0.20460
22160.000 0.20438
22165.000 0.20416
22170.000 0.20393
22175.000 0.20371
22180.000 0.20349
22185.000 0.20325
22190.000 0.20303
22195.000 0.20281
22200.000 0.20259
22205.000 0.20236
22210.000 0.20214
22215.000 0.20192
22220.000 0.20170
22225.000 0.20148
22230.000 0.20125
22235.000 0.20103
22240.000 0.20081
22245.000 0.20059
22250.000 0.20037
22255.000 0.20015
22260.000 0.19993
22265.000 0.19971
22270.000 0.19949
22275.000 0.19926
22280.000 0.19904
22285.000 0.19882
22290.000 0.19860
22295.000 0.19838
22300.000 0.19816
22305.000 0.19795
22310.000 0.19773
22315.000 0.19751
22320.000 0.19728
22325.000 0.19706
22330.000 0.19685
22335.000 0.19663
22340.000 0.19641
22345.000 0.19620
22350.000 0.19598
22355.000 0.19576
22360.000 0.19555
22365.000 0.19532
22370.000 0.19511
22375.000 0.19489
22380.000 0.19468
22385.000 0.19446
22390.000 0.19425
22395.000 0.19403
22400.000 0.19382
22405.000 0.19360
22410.000 0.19338
22415.000 0.19316
22420.000 0.19295
22425.000 0.19274
22430.000 0.19252
22435.000 0.19231
22440.000 0.19210
22445.000 0.19188
22450.000 0.19167
22455.000 0.19145
22460.000 0.19124
22465.000 0.19102
22470.000 0.19081
22475.000 0.19060
22480.000 0.19039
22485.000 0.19018
22490.000 0.18997
22495.000 0.18975
22500.000 0.18953
22505.000 0.18932
22510.000 0.18911
22515.000 0.18890
22520.000 0.18869
22525.000 0.18848
22530.000 0.18827
22535.000 0.18806
22540.000 0.18785
22545.000 0.18764
22550.000 0.18743
22555.000 0.18722
22560.000 0.18701
22565.000 0.18680
22570.000 0.18659
22575.000 0.18638
22580.000 0.18617
22585.000 0.18597
22590.000 0.18576
22595.000 0.18554
22600.000 0.18534
22605.000 0.18513
22610.000 0.18492
22615.000 0.18471
22620.000 0.18451
22625.000 0.18430
22630.000 0.18410
22635.000 0.18389
22640.000 0.18367
22645.000 0.18347
22650.000 0.18326
22655.000 0.18306
22660.000 0.18285
22665.000 0.18265
22670.000 0.18244
22675.000 0.18224
22680.000 0.18204
22685.000 0.18183
22690.000 0.18162
22695.000 0.18141
22700.000 0.18121
22705.000 0.18101
22710.000 0.18080
22715.000 0.18060
22720.000 0.18040
22725.000 0.18020
22730.000 0.17999
22735.000 0.17979
22740.000 0.17958
22745.000 0.17938
22750.000 0.17918
22755.000 0.17897
22760.000 0.17877
22765.000 0.17857
22770.000 0.17837
22775.000 0.17817
22780.000 0.17797
22785.000 0.17776
22790.000 0.17756
22795.000 0.17736
22800.000 0.17716
22805.000 0.17696
22810.000 0.17676
22815.000 0.17656
22820.000 0.17636
22825.000 0.17616
22830.000 0.17596
22835.000 0.17576
22840.000 0.17556
22845.000 0.17536
22850.000 0.17516
22855.000 0.17496
22860.000 0.17476
22865.000 0.17457
22870.000 0.17437
22875.000 0.17417
22880.000 0.17398
22885.000 0.17377
22890.000 0.17357
22895.000 0.17338
22900.000 0.17318
22905.000 0.17298
22910.000 0.17279
22915.000 0.17259
22920.000 0.17240
22925.000 0.17220
22930.000 0.17201
22935.000 0.17180
22940.000 0.17161
22945.000 0.17141
22950.000 0.17122
22955.000 0.17102
22960.000 0.17083
22965.000 0.17064
22970.000 0.17044
22975.000 0.17025
22980.000 0.17005
22985.000 0.16985
22990.000 0.16966
22995.000 0.16947
23000.000 0.16927
23005.000 0.16908
23010.000 0.16889
23015.000 0.16870
23020.000 0.16850
23025.000 0.16831
23030.000 0.16812
23035.000 0.16792
23040.000 0.16773
23045.000 0.16754
23050.000 0.16735
23055.000 0.16716
23060.000 0.16696
23065.000 0.16677
23070.000 0.16658
23075.000 0.16639
23080.000 0.16620
23085.000 0.16600
23090.000 0.16582
23095.000 0.16563
23100.000 0.16544
23105.000 0.16525
23110.000 0.16506
23115.000 0.16487
23120.000 0.16468
23125.000 0.16449
23130.000 0.16431
23135.000 0.16412
23140.000 0.16392
23145.000 0.16373
23150.000 0.16355
23155.000 0.16336
23160.000 0.16317
23165.000 0.16298
23170.000 0.16280
23175.000 0.16261
23180.000 0.16242
23185.000 0.16224
23190.000 0.16204
23195.000 0.16186
23200.000 0.16167
23205.000 0.16149
23210.000 0.16130
23215.000 0.16112
23220.000 0.16093
23225.000 0.16075
23230.000 0.16056
23235.000 0.16038
23240.000 0.16019
23245.000 0.16000
23250.000 0.15982
23255.000 0.15963
23260.000 0.15945
23265.000 0.15926
23270.000 0.15908
23275.000 0.15890
23280.000 0.15872
23285.000 0.15853
23290.000 0.15835
23295.000 0.15817
23300.000 0.15798
23305.000 0.15779
23310.000 0.15761
23315.000 0.15743
23320.000 0.15725
23325.000 0.15707
23330.000 0.15689
23335.000 0.15671
23340.000 0.15653
23345.000 0.15634
23350.000 0.15615
23355.000 0.15597
23360.000 0.15579
23365.000 0.15561
23370.000 0.15543
23375.000 0.15526
23380.000 0.15508
23385.000 0.15490
23390.000 0.15472
23395.000 0.15454
23400.000 0.15436
23405.000 0.15417
23410.000 0.15399
23415.000 0.15382
23420.000 0.15364
23425.000 0.15346
23430.000 0.15328
23435.000 0.15310
23440.000 0.15293
23445.000 0.15275
23450.000 0.15257
23455.000 0.15240
23460.000 0.15221
23465.000 0.15203
23470.000 0.15186
23475.000 0.15168
23480.000 0.15150
23485.000 0.15133
23490.000 0.15115
23495.000 0.15098
23500.000 0.15080
23505.000 0.15063
23510.000 0.15045
23515.000 0.15027
23520.000 0.15009
23525.000 0.14992
23530.000 0.14974
23535.000 0.14957
23540.000 0.14940
23545.000 0.14922
23550.000 0.14905
23555.000 0.14888
23560.000 0.14870
23565.000 0.14853
23570.000 0.14836
23575.000 0.14817
23580.000 0.14800
23585.000 0.14783
23590.000 0.14766
23595.000 0.14749
23600.000 0.14731
23605.000 0.14714
23610.000 0.14697
23615.000 0.14680
23620.000 0.14663
23625.000 0.14646
23630.000 0.14628
23635.000 0.14611
23640.000 0.14594
23645.000 0.14576
23650.000 0.14559
23655.000 0.14542
23660.000 0.14525
23665.000 0.14509
23670.000 0.14492
23675.000 0.14475
23680.000 0.14458
23685.000 0.14441
23690.000 0.14423
23695.000 0.14406
23700.000 0.14389
23705.000 0.14372
23710.000 0.14356
23715.000 0.14339
23720.000 0.14322
23725.000 0.14305
23730.000 0.14288
23735.000 0.14272
23740.000 0.14255
23745.000 0.14237
23750.000 0.14221
23755.000 0.14204
23760.000 0.14187
23765.000 0.14171
23770.000 0.14154
23775.000 0.14137
23780.000 0.14121
23785.000 0.14104
23790.000 0.14088
23795.000 0.14071
23800.000 0.14055
23805.000 0.14037
23810.000 0.14021
23815.000 0.14004
23820.000 0.13988
23825.000 0.13971
23830.000 0.13955
23835.000 0.13939
23840.000 0.13922
23845.000 0.13906
23850.000 0.13890
23855.000 0.13873
23860.000 0.13857
23865.000 0.13840
23870.000 0.13823
23875.000 0.13807
23880.000 0.13791
23885.000 0.13775
23890.000 0.13758
23895.000 0.13742
23900.000 0.13726
23905.000 0.13710
23910.000 0.13694
23915.000 0.13677
23920.000 0.13661
23925.000 0.13644
23930.000 0.13628
23935.000 0.13612
23940.000 0.13596
23945.000 0.13580
23950.000 0.13564
23955.000 0.13548
23960.000 0.13532
23965.000 0.13516
23970.000 0.13500
23975.000 0.13484
23980.000 0.13468
23985.000 0.13451
23990.000 0.13435
23995.000 0.13420
24000.000 0.13404
24005.000 0.13388
24010.000 0.13372
24015.000 0.13356
24020.000 0.13340
24025.000 0.13325
24030.000 0.13309
24035.000 0.13293
24040.000 0.13277
24045.000 0.13262
24050.000 0.13245
24055.000 0.13229
24060.000 0.13214
24065.000 0.13198
24070.000 0.13182
24075.000 0.13167
24080.000 0.13151
24085.000 0.13136
24090.000 0.13120
24095.000 0.13104
24100.000 0.13089
24105.000 0.13073
24110.000 0.13057
24115.000 0.13041
24120.000 0.13026
24125.000 0.13010
24130.000 0.12995
24135.000 0.12980
24140.000 0.12964
24145.000 0.12949
24150.000 0.12933
24155.000 0.12918
24160.000 0.12903
24165.000 0.12887
24170.000 0.12872
24175.000 0.12856
24180.000 0.12841
24185.000 0.12825
24190.000 0.12810
24195.000 0.12795
24200.000 0.12780
24205.000 0.12764
24210.000 0.12749
24215.000 0.12734
24220.000 0.12719
24225.000 0.12704
24230.000 0.12689
24235.000 0.12674
24240.000 0.12657
24245.000 0.12642
24250.000 0.12627
24255.000 0.12612
24260.000 0.12597
24265.000 0.12582
24270.000 0.12567
24275.000 0.12552
24280.000 0.12537
24285.000 0.12522
24290.000 0.12507
24295.000 0.12493
24300.000 0.12478
24305.000 0.12462
24310.000 0.12447
24315.000 0.12432
24320.000 0.12417
24325.000 0.12402
24330.000 0.12388
24335.000 0.12373
24340.000 0.12358
24345.000 0.12343
24350.000 0.12329
24355.000 0.12314
24360.000 0.12299
24365.000 0.12284
24370.000 0.12269
24375.000 0.12254
24380.000 0.12239
24385.000 0.12225
24390.000 0.12210
24395.000 0.12196
24400.000 0.12181
24405.000 0.12166
24410.000 0.12152
24415.000 0.12137
24420.000 0.12123
24425.000 0.12108
24430.000 0.12094
24435.000 0.12078
24440.000 0.12064
24445.000 0.12049
24450.000 0.12035
24455.000 0.12021
24460.000 0.12006
24465.000 0.11992
24470.000 0.11977
24475.000 0.11963
24480.000 0.11949
24485.000 0.11935
24490.000 0.11920
24495.000 0.11906
24500.000 0.11892
24505.000 0.11876
24510.000 0.11862
24515.000 0.11848
24520.000 0.11834
24525.000 0.11820
24530.000 0.11805
24535.000 0.11791
24540.000 0.11777
24545.000 0.11763
24550.000 0.11749
24555.000 0.11735
24560.000 0.11721
24565.000 0.11707
24570.000 0.11692
24575.000 0.11677
24580.000 0.11663
24585.000 0.11649
24590.000 0.11635
24595.000 0.11621
24600.000 0.11607
24605.000 0.11594
24610.000 0.11580
24615.000 0.11566
24620.000 0.11552
24625.000 0.11538
24630.000 0.11524
24635.000 0.11510
24640.000 0.11496
24645.000 0.11482
24650.000 0.11468
24655.000 0.11454
24660.000 0.11440
24665.000 0.11426
24670.000 0.11413
24675.000 0.11399
24680.000 0.11385
24685.000 0.11371
24690.000 0.11358
24695.000 0.11344
24700.000 0.11330
24705.000 0.11317
24710.000 0.11303
24715.000 0.11289
24720.000 0.11275
24725.000 0.11261
24730.000 0.11248
24735.000 0.11234
24740.000 0.11221
24745.000 0.11207
24750.000 0.11194
24755.000 0.11180
24760.000 0.11167
24765.000 0.11153
24770.000 0.11140
24775.000 0.11126
24780.000 0.11113
24785.000 0.11099
24790.000 0.11085
24795.000 0.11072
24800.000 0.11058
24805.000 0.11045
24810.000 0.11032
24815.000 0.11019
24820.000 0.11005
24825.000 0.10992
24830.000 0.10979
24835.000 0.10965
24840.000 0.10952
24845.000 0.10939
24850.000 0.10926
24855.000 0.10913
24860.000 0.10898
24865.000 0.10885
24870.000 0.10872
24875.000 0.10859
24880.000 0.10846
24885.000 0.10833
24890.000 0.10820
24895.000 0.10807
24900.000 0.10794
24905.000 0.10780
24910.000 0.10767
24915.000 0.10754
24920.000 0.10741
24925.000 0.10728
24930.000 0.10716
24935.000 0.10702
24940.000 0.10689
24945.000 0.10676
24950.000 0.10663
24955.000 0.10650
24960.000 0.10637
24965.000 0.10624
24970.000 0.10611
24975.000 0.10598
24980.000 0.10586
24985.000 0.10573
24990.000 0.10560
24995.000 0.10547
25000.000 0.00000
