# Wavelength_[A] F_lambda_[norm]
1150.000 0.03927
1155.000 0.04417
1160.000 0.03623
1165.000 0.00277
1170.000 0.00000
1175.000 0.00000
1180.000 0.00968
1185.000 0.00646
1190.000 0.00000
1195.000 0.00000
1200.000 0.00755
1205.000 0.02649
1210.000 0.11264
1215.000 0.19822
1220.000 0.12201
1225.000 0.02114
1230.000 0.00275
1235.000 0.00289
1240.000 0.00253
1245.000 0.00167
1250.000 0.00129
1255.000 0.00135
1260.000 0.00130
1265.000 0.00000
1270.000 0.00000
1275.000 0.00063
1280.000 0.00235
1285.000 0.00215
1290.000 0.00043
1295.000 0.00042
1300.000 0.00129
1305.000 0.00000
1310.000 0.00097
1315.000 0.00202
1320.000 0.00154
1325.000 0.00096
1330.000 0.00148
1335.000 0.00126
1340.000 0.00045
1345.000 0.00006
1350.000 0.00061
1355.000 0.00119
1360.000 0.00138
1365.000 0.00178
1370.000 0.00104
1375.000 0.00164
1380.000 0.00214
1385.000 0.00190
1390.000 0.00052
1395.000 0.00158
1400.000 0.00225
1405.000 0.00305
1410.000 0.00253
1415.000 0.00065
1420.000 0.00000
1425.000 0.00099
1430.000 0.00213
1435.000 0.00154
1440.000 0.00265
1445.000 0.00549
1450.000 0.00437
1455.000 0.00212
1460.000 0.00099
1465.000 0.00138
1470.000 0.00254
1475.000 0.00295
1480.000 0.00294
1485.000 0.00212
1490.000 0.00226
1495.000 0.00254
1500.000 0.00251
1505.000 0.00241
1510.000 0.00238
1515.000 0.00236
1520.000 0.00212
1525.000 0.00222
1530.000 0.00272
1535.000 0.00330
1540.000 0.00358
1545.000 0.00537
1550.000 0.00521
1555.000 0.00303
1560.000 0.00386
1565.000 0.00405
1570.000 0.00403
1575.000 0.00477
1580.000 0.00363
1585.000 0.00358
1590.000 0.00378
1595.000 0.00266
1600.000 0.00217
1605.000 0.00336
1610.000 0.00320
1615.000 0.00178
1620.000 0.00145
1625.000 0.00224
1630.000 0.00351
1635.000 0.00406
1640.000 0.00247
1645.000 0.00327
1650.000 0.00413
1655.000 0.00360
1660.000 0.00523
1665.000 0.00545
1670.000 0.00453
1675.000 0.00357
1680.000 0.00513
1685.000 0.00504
1690.000 0.00482
1695.000 0.00549
1700.000 0.00643
1705.000 0.00530
1710.000 0.00439
1715.000 0.00485
1720.000 0.00577
1725.000 0.00640
1730.000 0.00630
1735.000 0.00734
1740.000 0.00769
1745.000 0.00913
1750.000 0.00916
1755.000 0.00865
1760.000 0.00943
1765.000 0.01091
1770.000 0.01151
1775.000 0.01349
1780.000 0.01191
1785.000 0.01059
1790.000 0.00748
1795.000 0.00870
1800.000 0.01133
1805.000 0.01254
1810.000 0.01458
1815.000 0.01613
1820.000 0.01738
1825.000 0.01654
1830.000 0.01646
1835.000 0.01694
1840.000 0.01664
1845.000 0.01535
1850.000 0.01527
1855.000 0.01665
1860.000 0.01893
1865.000 0.02022
1870.000 0.02136
1875.000 0.02210
1880.000 0.02290
1885.000 0.02433
1890.000 0.02546
1895.000 0.02560
1900.000 0.02313
1905.000 0.02368
1910.000 0.02612
1915.000 0.02707
1920.000 0.02905
1925.000 0.02788
1930.000 0.02592
1935.000 0.02484
1940.000 0.02802
1945.000 0.03529
1950.000 0.03873
1955.000 0.06950
1960.000 0.07769
1965.000 0.03795
1970.000 0.00228
1975.000 0.00000
1980.000 0.02505
1985.000 0.11640
1990.000 0.12057
1995.000 0.06998
2000.000 0.05981
2005.000 0.00000
2010.000 0.00000
2015.000 0.00541
2020.000 0.00000
2025.000 0.00000
2030.000 0.00000
2035.000 0.00000
2040.000 0.00000
2045.000 0.00263
2050.000 0.04102
2055.000 0.05076
2060.000 0.07631
2065.000 0.03717
2070.000 0.03176
2075.000 0.09186
2080.000 0.15561
2085.000 0.12107
2090.000 0.09422
2095.000 0.06781
2100.000 0.16699
2105.000 0.24392
2110.000 0.24608
2115.000 0.20274
2120.000 0.22794
2125.000 0.22575
2130.000 0.07592
2135.000 0.19255
2140.000 0.22341
2145.000 0.23884
2150.000 0.25847
2155.000 0.22291
2160.000 0.20416
2165.000 0.07271
2170.000 0.00000
2175.000 0.09513
2180.000 0.24489
2185.000 0.26274
2190.000 0.19133
2195.000 0.15309
2200.000 0.22884
2205.000 0.21044
2210.000 0.27384
2215.000 0.13267
2220.000 0.19087
2225.000 0.20931
2230.000 0.14495
2235.000 0.20502
2240.000 0.26618
2245.000 0.26098
2250.000 0.14326
2255.000 0.27148
2260.000 0.27467
2265.000 0.16243
2270.000 0.12114
2275.000 0.12632
2280.000 0.13529
2285.000 0.10451
2290.000 0.18047
2295.000 0.19848
2300.000 0.20682
2305.000 0.18775
2310.000 0.21915
2315.000 0.16808
2320.000 0.23750
2325.000 0.34049
2330.000 0.26541
2335.000 0.20117
2340.000 0.23231
2345.000 0.19453
2350.000 0.19409
2355.000 0.21680
2360.000 0.24368
2365.000 0.22774
2370.000 0.25958
2375.000 0.23262
2380.000 0.22291
2385.000 0.19346
2390.000 0.22208
2395.000 0.21502
2400.000 0.18431
2405.000 0.18010
2410.000 0.19302
2415.000 0.21823
2420.000 0.31127
2425.000 0.38139
2430.000 0.41802
2435.000 0.41677
2440.000 0.41362
2445.000 0.34975
2450.000 0.20682
2455.000 0.14735
2460.000 0.21661
2465.000 0.25201
2470.000 0.24107
2475.000 0.24531
2480.000 0.25752
2485.000 0.20947
2490.000 0.15990
2495.000 0.25294
2500.000 0.36570
2505.000 0.36868
2510.000 0.32127
2515.000 0.24525
2520.000 0.20448
2525.000 0.19801
2530.000 0.25084
2535.000 0.27667
2540.000 0.27008
2545.000 0.29206
2550.000 0.32825
2555.000 0.39235
2560.000 0.40781
2565.000 0.47672
2570.000 0.57863
2575.000 0.60805
2580.000 0.66144
2585.000 0.62368
2590.000 0.58475
2595.000 0.48534
2600.000 0.44090
2605.000 0.42714
2610.000 0.40641
2615.000 0.45304
2620.000 0.53305
2625.000 0.49462
2630.000 0.52673
2635.000 0.89452
2640.000 1.21902
2645.000 1.19857
2650.000 1.13133
2655.000 1.28897
2660.000 1.26027
2665.000 1.16674
2670.000 1.22682
2675.000 1.18604
2680.000 1.18451
2685.000 1.18592
2690.000 1.10246
2695.000 1.05930
2700.000 1.17474
2705.000 1.24409
2710.000 1.18008
2715.000 1.10287
2720.000 0.86337
2725.000 0.94227
2730.000 1.01040
2735.000 0.86698
2740.000 0.66042
2745.000 0.59213
2750.000 0.67062
2755.000 0.75201
2760.000 0.91100
2765.000 1.08341
2770.000 1.17230
2775.000 1.02570
2780.000 0.84606
2785.000 0.73087
2790.000 0.49618
2795.000 0.34628
2800.000 0.35106
2805.000 0.45000
2810.000 0.64017
2815.000 1.01861
2820.000 1.24385
2825.000 1.33113
2830.000 1.41947
2835.000 1.41028
2840.000 1.32253
2845.000 1.07456
2850.000 0.72149
2855.000 0.85159
2860.000 1.35017
2865.000 1.52914
2870.000 1.49029
2875.000 1.47574
2880.000 1.33206
2885.000 1.58781
2890.000 1.74069
2895.000 1.77739
2900.000 1.92715
2905.000 1.98943
2910.000 2.06222
2915.000 2.11796
2920.000 2.03999
2925.000 1.94254
2930.000 1.97218
2935.000 2.03536
2940.000 2.06716
2945.000 2.10668
2950.000 2.10707
2955.000 2.19258
2960.000 2.19063
2965.000 1.99450
2970.000 2.04610
2975.000 2.21045
2980.000 2.03618
2985.000 1.89755
2990.000 2.08940
2995.000 2.10358
3000.000 1.91520
3005.000 1.99472
3010.000 2.17860
3015.000 2.10716
3020.000 2.08107
3025.000 2.34330
3030.000 2.59900
3035.000 2.58052
3040.000 2.48620
3045.000 2.56630
3050.000 2.61664
3055.000 2.43006
3060.000 2.40284
3065.000 2.54432
3070.000 2.74138
3075.000 2.76144
3080.000 2.83392
3085.000 2.94965
3090.000 2.47728
3095.000 2.23329
3100.000 2.34989
3105.000 2.78662
3110.000 3.00542
3115.000 2.87465
3120.000 2.60434
3125.000 2.63423
3130.000 2.94579
3135.000 2.94278
3140.000 2.73692
3145.000 2.54121
3150.000 2.59093
3155.000 2.49335
3160.000 2.55717
3165.000 2.74711
3170.000 2.99110
3175.000 2.98704
3180.000 2.73246
3185.000 2.65252
3190.000 2.62828
3195.000 2.73073
3200.000 3.16009
3205.000 3.25192
3210.000 3.23932
3215.000 3.15492
3220.000 3.01603
3225.000 2.85130
3230.000 2.74951
3235.000 2.78266
3240.000 2.89523
3245.000 3.01555
3250.000 3.13483
3255.000 3.26888
3260.000 3.46907
3265.000 3.74387
3270.000 3.89450
3275.000 3.76515
3280.000 3.57917
3285.000 3.57966
3290.000 3.70963
3295.000 3.84607
3300.000 3.90201
3305.000 3.83539
3310.000 3.74801
3315.000 3.74088
3320.000 3.76822
3325.000 3.76211
3330.000 3.71278
3335.000 3.64156
3340.000 3.63606
3345.000 3.75093
3350.000 3.84272
3355.000 3.77765
3360.000 3.65882
3365.000 3.60831
3370.000 3.58745
3375.000 3.54494
3380.000 3.53986
3385.000 3.63275
3390.000 3.77956
3395.000 3.91487
3400.000 3.99269
3405.000 3.98655
3410.000 3.92869
3415.000 3.87066
3420.000 3.88234
3425.000 3.99224
3430.000 4.04494
3435.000 3.90434
3440.000 3.69566
3445.000 3.58033
3450.000 3.60326
3455.000 3.74715
3460.000 3.86220
3465.000 3.82292
3470.000 3.73360
3475.000 3.71364
3480.000 3.71308
3485.000 3.67146
3490.000 3.65569
3495.000 3.73546
3500.000 3.86418
3505.000 3.97037
3510.000 4.29850
3515.000 4.10862
3520.000 4.03815
3525.000 3.93342
3530.000 4.21661
3535.000 4.44800
3540.000 4.53437
3545.000 4.54786
3550.000 4.50597
3555.000 4.43061
3560.000 4.41262
3565.000 4.06814
3570.000 3.67755
3575.000 3.73615
3580.000 3.57008
3585.000 3.34329
3590.000 3.72796
3595.000 4.32914
3600.000 4.54463
3605.000 4.21742
3610.000 4.00935
3615.000 4.12605
3620.000 4.00652
3625.000 4.28338
3630.000 4.39449
3635.000 4.20755
3640.000 4.36376
3645.000 4.38168
3650.000 4.39340
3655.000 4.83621
3660.000 5.06929
3665.000 5.05648
3670.000 4.97799
3675.000 4.98291
3680.000 4.79837
3685.000 4.72267
3690.000 4.87886
3695.000 5.02431
3700.000 5.06982
3705.000 4.88754
3710.000 4.79125
3715.000 5.05138
3720.000 4.72661
3725.000 4.54611
3730.000 4.49899
3735.000 4.05287
3740.000 4.19400
3745.000 4.30665
3750.000 4.21243
3755.000 4.74260
3760.000 4.79280
3765.000 4.76972
3770.000 4.89255
3775.000 5.37807
3780.000 5.84176
3785.000 5.87626
3790.000 5.40344
3795.000 4.95306
3800.000 4.83596
3805.000 5.38029
3810.000 5.58594
3815.000 5.22768
3820.000 4.75485
3825.000 4.23624
3830.000 3.73777
3835.000 3.55319
3840.000 3.88799
3845.000 4.60758
3850.000 5.11026
3855.000 5.20033
3860.000 5.10938
3865.000 5.32935
3870.000 5.22769
3875.000 5.17362
3880.000 4.97660
3885.000 4.65286
3890.000 4.56812
3895.000 5.03304
3900.000 5.36262
3905.000 5.11025
3910.000 5.58679
3915.000 5.75249
3920.000 5.35116
3925.000 4.56735
3930.000 3.37503
3935.000 2.84124
3940.000 3.59595
3945.000 4.49559
3950.000 5.21636
3955.000 5.36250
3960.000 4.82099
3965.000 3.71091
3970.000 3.12059
3975.000 3.93094
3980.000 5.13581
3985.000 5.98619
3990.000 6.70883
3995.000 7.09560
4000.000 7.15001
4005.000 7.10503
4010.000 7.17656
4015.000 7.37443
4020.000 7.51646
4025.000 7.55007
4030.000 7.30465
4035.000 7.23188
4040.000 7.33709
4045.000 7.11544
4050.000 7.25117
4055.000 7.12788
4060.000 6.86143
4065.000 6.71133
4070.000 6.75975
4075.000 6.82597
4080.000 7.04323
4085.000 7.34678
4090.000 7.34187
4095.000 6.85719
4100.000 6.15990
4105.000 6.25289
4110.000 6.82617
4115.000 7.27040
4120.000 7.46819
4125.000 7.50339
4130.000 7.35145
4135.000 7.33097
4140.000 7.41939
4145.000 7.34640
4150.000 7.34999
4155.000 7.26588
4160.000 7.33034
4165.000 7.41265
4170.000 7.27502
4175.000 7.07686
4180.000 7.16004
4185.000 7.16851
4190.000 7.16998
4195.000 7.10761
4200.000 6.94471
4205.000 7.17832
4210.000 7.46470
4215.000 7.48057
4220.000 7.38933
4225.000 7.00571
4230.000 6.92585
4235.000 7.04708
4240.000 7.08555
4245.000 7.30539
4250.000 7.32255
4255.000 7.36642
4260.000 7.23545
4265.000 7.17767
4270.000 6.92853
4275.000 6.79720
4280.000 7.11216
4285.000 7.08928
4290.000 6.84298
4295.000 6.49805
4300.000 5.85269
4305.000 5.48743
4310.000 5.55921
4315.000 6.35090
4320.000 7.15659
4325.000 7.07206
4330.000 7.19465
4335.000 7.02481
4340.000 6.38593
4345.000 6.54344
4350.000 7.05245
4355.000 7.33202
4360.000 7.63954
4365.000 7.85085
4370.000 7.69141
4375.000 7.42049
4380.000 7.25571
4385.000 6.90641
4390.000 7.11223
4395.000 7.33529
4400.000 7.45293
4405.000 7.41048
4410.000 7.65040
4415.000 7.80815
4420.000 7.89016
4425.000 8.06364
4430.000 8.03489
4435.000 8.00214
4440.000 8.13808
4445.000 8.10894
4450.000 8.11193
4455.000 7.74175
4460.000 7.60242
4465.000 7.81229
4470.000 7.95188
4475.000 8.19228
4480.000 8.13360
4485.000 8.22973
4490.000 8.25591
4495.000 8.29886
4500.000 8.52559
4505.000 8.82986
4510.000 8.93902
4515.000 8.68824
4520.000 8.43844
4525.000 8.04358
4530.000 7.79302
4535.000 7.95072
4540.000 8.20521
4545.000 8.26129
4550.000 8.15333
4555.000 8.20497
4560.000 8.30553
4565.000 8.27799
4570.000 8.37383
4575.000 8.45173
4580.000 8.27851
4585.000 8.15858
4590.000 8.17735
4595.000 8.15391
4600.000 8.18086
4605.000 8.22676
4610.000 8.29776
4615.000 8.39680
4620.000 8.53987
4625.000 8.56491
4630.000 8.44094
4635.000 8.31145
4640.000 8.18176
4645.000 8.01651
4650.000 7.99015
4655.000 8.12464
4660.000 8.14192
4665.000 7.88448
4670.000 7.85391
4675.000 7.95338
4680.000 8.00938
4685.000 8.09487
4690.000 8.06980
4695.000 7.98671
4700.000 7.75835
4705.000 7.65138
4710.000 7.77351
4715.000 7.93810
4720.000 8.10890
4725.000 8.20421
4730.000 8.13190
4735.000 8.12902
4740.000 8.18264
4745.000 8.28006
4750.000 8.29747
4755.000 8.19918
4760.000 8.08616
4765.000 7.95110
4770.000 7.99937
4775.000 8.24081
4780.000 8.31116
4785.000 8.24718
4790.000 8.22037
4795.000 8.29324
4800.000 8.26353
4805.000 8.21644
4810.000 8.13784
4815.000 8.22503
4820.000 8.30167
4825.000 8.12587
4830.000 8.13373
4835.000 8.11485
4840.000 7.96365
4845.000 7.89341
4850.000 7.61235
4855.000 7.03841
4860.000 6.45231
4865.000 6.63690
4870.000 6.90504
4875.000 7.17042
4880.000 7.51603
4885.000 7.56411
4890.000 7.70501
4895.000 7.99173
4900.000 8.04903
4905.000 7.95321
4910.000 7.77865
4915.000 7.70325
4920.000 7.46315
4925.000 7.55043
4930.000 7.76741
4935.000 7.74979
4940.000 7.80856
4945.000 8.04035
4950.000 8.04368
4955.000 7.90989
4960.000 7.85390
4965.000 7.92678
4970.000 7.90405
4975.000 7.89621
4980.000 7.70648
4985.000 7.51327
4990.000 7.67273
4995.000 7.65654
5000.000 7.44911
5005.000 7.25360
5010.000 7.28958
5015.000 7.23274
5020.000 7.30580
5025.000 7.47189
5030.000 7.59913
5035.000 7.53393
5040.000 7.29298
5045.000 7.39596
5050.000 7.54139
5055.000 7.64496
5060.000 7.80458
5065.000 7.72656
5070.000 7.58056
5075.000 7.48446
5080.000 7.37653
5085.000 7.47350
5090.000 7.67260
5095.000 7.70185
5100.000 7.60635
5105.000 7.63516
5110.000 7.58238
5115.000 7.73213
5120.000 7.70458
5125.000 7.44445
5130.000 7.34532
5135.000 7.30823
5140.000 7.22229
5145.000 7.32920
5150.000 7.36716
5155.000 7.33058
5160.000 7.19681
5165.000 6.69017
5170.000 6.33623
5175.000 6.60054
5180.000 6.78591
5185.000 6.67780
5190.000 6.93952
5195.000 7.06041
5200.000 7.18776
5205.000 7.15465
5210.000 7.24598
5215.000 7.33395
5220.000 7.38655
5225.000 7.18269
5230.000 7.15224
5235.000 7.30145
5240.000 7.49341
5245.000 7.55331
5250.000 7.49008
5255.000 7.46764
5260.000 7.21713
5265.000 6.70588
5270.000 6.58773
5275.000 6.89693
5280.000 7.20360
5285.000 7.36964
5290.000 7.61319
5295.000 7.51315
5300.000 7.45852
5305.000 7.57439
5310.000 7.64262
5315.000 7.59361
5320.000 7.47394
5325.000 7.19767
5330.000 7.03768
5335.000 7.19028
5340.000 7.28882
5345.000 7.43394
5350.000 7.54060
5355.000 7.64492
5360.000 7.53848
5365.000 7.29582
5370.000 7.16320
5375.000 7.31078
5380.000 7.39164
5385.000 7.38389
5390.000 7.30869
5395.000 7.15919
5400.000 7.07039
5405.000 6.93973
5410.000 7.01207
5415.000 7.13840
5420.000 7.20813
5425.000 7.24596
5430.000 7.19304
5435.000 7.17002
5440.000 7.26746
5445.000 7.23339
5450.000 7.31283
5455.000 7.30930
5460.000 7.32607
5465.000 7.23336
5470.000 7.16779
5475.000 7.02801
5480.000 7.00670
5485.000 7.16354
5490.000 7.21592
5495.000 7.22352
5500.000 7.19279
5505.000 7.11926
5510.000 7.09050
5515.000 7.10239
5520.000 7.14206
5525.000 7.07353
5530.000 7.05733
5535.000 7.15460
5540.000 7.19388
5545.000 7.23279
5550.000 7.29007
5555.000 7.24695
5560.000 7.18367
5565.000 7.09946
5570.000 7.02371
5575.000 6.99927
5580.000 7.00218
5585.000 6.86421
5590.000 6.74262
5595.000 6.81593
5600.000 6.84267
5605.000 6.95824
5610.000 7.10839
5615.000 6.97445
5620.000 6.97047
5625.000 7.00478
5630.000 7.04404
5635.000 7.04928
5640.000 7.01382
5645.000 7.00885
5650.000 6.97940
5655.000 6.88009
5660.000 6.80946
5665.000 6.85263
5670.000 6.94517
5675.000 7.01062
5680.000 7.01190
5685.000 6.92003
5690.000 6.84302
5695.000 6.78986
5700.000 6.73004
5705.000 6.68691
5710.000 6.64279
5715.000 6.76090
5720.000 6.93817
5725.000 7.06776
5730.000 7.12628
5735.000 7.13323
5740.000 7.07388
5745.000 6.99120
5750.000 6.87730
5755.000 6.82888
5760.000 6.83119
5765.000 6.86007
5770.000 6.91045
5775.000 6.94731
5780.000 6.84675
5785.000 6.72254
5790.000 6.74888
5795.000 6.81937
5800.000 6.81078
5805.000 6.81573
5810.000 6.88253
5815.000 6.89113
5820.000 6.95094
5825.000 7.00772
5830.000 7.06171
5835.000 7.02962
5840.000 7.03931
5845.000 6.89959
5850.000 6.83656
5855.000 6.75785
5860.000 6.76816
5865.000 6.81985
5870.000 6.83575
5875.000 6.80270
5880.000 6.69461
5885.000 6.43011
5890.000 6.18026
5895.000 6.28191
5900.000 6.57230
5905.000 6.66856
5910.000 6.69979
5915.000 6.70423
5920.000 6.72369
5925.000 6.70654
5930.000 6.64282
5935.000 6.63395
5940.000 6.63393
5945.000 6.60792
5950.000 6.59336
5955.000 6.61549
5960.000 6.63504
5965.000 6.65175
5970.000 6.64743
5975.000 6.59291
5980.000 6.55145
5985.000 6.51735
5990.000 6.57659
5995.000 6.59052
6000.000 6.55356
6005.000 6.50844
6010.000 6.47849
6015.000 6.45123
6020.000 6.41750
6025.000 6.46828
6030.000 6.53797
6035.000 6.58156
6040.000 6.57781
6045.000 6.57647
6050.000 6.55207
6055.000 6.52672
6060.000 6.54777
6065.000 6.54168
6070.000 6.55555
6075.000 6.51619
6080.000 6.46781
6085.000 6.45433
6090.000 6.40837
6095.000 6.36220
6100.000 6.24844
6105.000 6.29934
6110.000 6.39421
6115.000 6.42961
6120.000 6.34020
6125.000 6.32670
6130.000 6.33555
6135.000 6.22496
6140.000 6.23330
6145.000 6.24919
6150.000 6.25926
6155.000 6.19816
6160.000 6.10550
6165.000 6.09231
6170.000 6.14795
6175.000 6.26291
6180.000 6.32473
6185.000 6.33898
6190.000 6.33828
6195.000 6.34219
6200.000 6.38273
6205.000 6.36085
6210.000 6.29569
6215.000 6.23988
6220.000 6.24229
6225.000 6.20148
6230.000 6.17897
6235.000 6.17674
6240.000 6.14081
6245.000 6.11368
6250.000 6.10948
6255.000 6.07073
6260.000 6.11566
6265.000 6.10443
6270.000 6.16821
6275.000 6.04973
6280.000 5.99429
6285.000 6.10086
6290.000 6.13005
6295.000 6.09823
6300.000 6.02406
6305.000 6.07302
6310.000 6.04589
6315.000 5.95647
6320.000 6.02797
6325.000 6.09222
6330.000 6.08489
6335.000 6.02340
6340.000 6.01555
6345.000 6.04394
6350.000 6.03728
6355.000 6.00522
6360.000 5.98060
6365.000 6.02362
6370.000 6.08201
6375.000 6.08545
6380.000 6.05276
6385.000 6.06903
6390.000 6.02345
6395.000 5.95743
6400.000 5.91747
6405.000 5.92078
6410.000 5.86064
6415.000 5.88310
6420.000 5.88656
6425.000 5.94016
6430.000 5.94922
6435.000 5.91829
6440.000 5.93314
6445.000 5.95199
6450.000 5.90651
6455.000 5.89509
6460.000 5.85238
6465.000 5.84021
6470.000 5.84667
6475.000 5.85250
6480.000 5.84208
6485.000 5.80135
6490.000 5.67890
6495.000 5.59737
6500.000 5.74653
6505.000 5.88449
6510.000 5.90895
6515.000 5.85025
6520.000 5.84220
6525.000 5.81556
6530.000 5.77693
6535.000 5.78957
6540.000 5.80451
6545.000 5.70598
6550.000 5.54873
6555.000 5.23334
6560.000 4.73147
6565.000 4.84646
6570.000 5.24445
6575.000 5.50881
6580.000 5.61979
6585.000 5.67273
6590.000 5.66586
6595.000 5.61384
6600.000 5.69431
6605.000 5.72955
6610.000 5.74052
6615.000 5.79393
6620.000 5.76273
6625.000 5.70289
6630.000 5.62495
6635.000 5.58615
6640.000 5.63608
6645.000 5.66171
6650.000 5.72098
6655.000 5.72651
6660.000 5.69798
6665.000 5.69510
6670.000 5.67246
6675.000 5.62514
6680.000 5.66151
6685.000 5.71141
6690.000 5.71039
6695.000 5.64604
6700.000 5.64271
6705.000 5.64223
6710.000 5.61862
6715.000 5.54971
6720.000 5.53598
6725.000 5.58764
6730.000 5.59375
6735.000 5.60259
6740.000 5.58601
6745.000 5.59442
6750.000 5.54434
6755.000 5.55732
6760.000 5.55575
6765.000 5.56129
6770.000 5.55947
6775.000 5.58711
6780.000 5.57913
6785.000 5.56803
6790.000 5.59375
6795.000 5.59132
6800.000 5.59195
6805.000 5.56742
6810.000 5.55399
6815.000 5.54614
6820.000 5.55677
6825.000 5.56335
6830.000 5.56193
6835.000 5.52280
6840.000 5.52511
6845.000 5.49212
6850.000 5.48868
6855.000 5.50845
6860.000 5.53271
6865.000 5.54373
6870.000 5.53341
6875.000 5.50760
6880.000 5.47715
6885.000 5.45370
6890.000 5.44483
6895.000 5.45399
6900.000 5.47560
6905.000 5.49697
6910.000 5.50349
6915.000 5.48835
6920.000 5.45290
6925.000 5.41292
6930.000 5.38459
6935.000 5.37623
6940.000 5.38568
6945.000 5.40241
6950.000 5.41582
6955.000 5.42120
6960.000 5.41699
6965.000 5.40712
6970.000 5.40356
6975.000 5.31686
6980.000 5.29800
6985.000 5.33677
6990.000 5.37793
6995.000 5.38014
7000.000 5.31592
7005.000 5.26994
7010.000 5.26539
7015.000 5.23210
7020.000 5.20454
7025.000 5.22505
7030.000 5.22623
7035.000 5.18355
7040.000 5.22577
7045.000 5.28709
7050.000 5.27423
7055.000 5.24627
7060.000 5.25357
7065.000 5.21457
7070.000 5.23754
7075.000 5.26653
7080.000 5.24138
7085.000 5.20116
7090.000 5.17687
7095.000 5.19423
7100.000 5.22063
7105.000 5.19655
7110.000 5.15530
7115.000 5.16768
7120.000 5.13985
7125.000 5.14222
7130.000 5.16080
7135.000 5.25139
7140.000 5.25891
7145.000 5.20881
7150.000 5.18095
7155.000 5.21527
7160.000 5.13766
7165.000 5.03873
7170.000 5.02498
7175.000 4.97564
7180.000 4.89923
7185.000 4.81649
7190.000 4.87608
7195.000 4.91899
7200.000 4.98625
7205.000 5.01530
7210.000 5.12027
7215.000 5.13574
7220.000 5.12759
7225.000 5.15847
7230.000 5.09935
7235.000 5.05649
7240.000 5.00265
7245.000 4.99388
7250.000 4.96169
7255.000 5.00739
7260.000 5.01107
7265.000 5.02335
7270.000 4.98069
7275.000 4.88698
7280.000 4.90313
7285.000 4.87230
7290.000 4.92415
7295.000 5.09170
7300.000 5.10437
7305.000 5.07532
7310.000 5.02654
7315.000 4.96705
7320.000 4.95706
7325.000 4.99142
7330.000 5.06485
7335.000 5.13206
7340.000 5.12329
7345.000 5.08317
7350.000 5.02201
7355.000 5.01822
7360.000 5.02124
7365.000 5.05386
7370.000 5.05955
7375.000 5.05001
7380.000 5.01804
7385.000 4.95582
7390.000 4.97574
7395.000 4.97344
7400.000 4.94409
7405.000 4.90513
7410.000 4.91116
7415.000 4.97533
7420.000 5.02578
7425.000 5.08815
7430.000 5.08655
7435.000 5.02953
7440.000 4.95420
7445.000 4.90654
7450.000 4.95499
7455.000 4.97232
7460.000 4.98182
7465.000 5.00836
7470.000 4.98163
7475.000 4.93078
7480.000 4.89329
7485.000 4.88448
7490.000 4.86238
7495.000 4.89687
7500.000 4.92188
7505.000 4.89237
7510.000 4.88293
7515.000 4.89655
7520.000 4.85468
7525.000 4.81504
7530.000 4.78755
7535.000 4.78898
7540.000 4.79684
7545.000 4.81266
7550.000 4.82926
7555.000 4.81032
7560.000 4.77938
7565.000 4.77214
7570.000 4.80891
7575.000 4.86923
7580.000 4.89408
7585.000 4.82830
7590.000 4.67621
7595.000 4.50899
7600.000 4.41637
7605.000 4.44115
7610.000 4.54985
7615.000 4.65768
7620.000 4.69395
7625.000 4.65427
7630.000 4.59037
7635.000 4.55820
7640.000 4.57104
7645.000 4.59324
7650.000 4.58033
7655.000 4.52806
7660.000 4.47971
7665.000 4.49012
7670.000 4.57901
7675.000 4.70971
7680.000 4.81345
7685.000 4.83673
7690.000 4.77542
7695.000 4.67459
7700.000 4.59459
7705.000 4.57194
7710.000 4.60451
7715.000 4.65988
7720.000 4.70203
7725.000 4.71365
7730.000 4.70411
7735.000 4.68089
7740.000 4.61670
7745.000 4.57199
7750.000 4.58511
7755.000 4.59395
7760.000 4.59160
7765.000 4.58926
7770.000 4.54847
7775.000 4.54750
7780.000 4.59743
7785.000 4.62119
7790.000 4.64382
7795.000 4.63001
7800.000 4.60831
7805.000 4.56986
7810.000 4.53256
7815.000 4.52776
7820.000 4.54796
7825.000 4.56426
7830.000 4.54751
7835.000 4.52341
7840.000 4.48744
7845.000 4.43032
7850.000 4.42678
7855.000 4.47729
7860.000 4.53725
7865.000 4.55928
7870.000 4.51279
7875.000 4.42561
7880.000 4.35578
7885.000 4.31916
7890.000 4.32086
7895.000 4.36261
7900.000 4.42396
7905.000 4.45585
7910.000 4.43724
7915.000 4.42441
7920.000 4.38841
7925.000 4.35516
7930.000 4.30540
7935.000 4.31085
7940.000 4.31013
7945.000 4.34547
7950.000 4.38131
7955.000 4.36078
7960.000 4.32750
7965.000 4.30860
7970.000 4.29223
7975.000 4.28727
7980.000 4.27149
7985.000 4.28492
7990.000 4.25515
7995.000 4.20666
8000.000 4.30398
8005.000 4.32444
8010.000 4.32131
8015.000 4.32574
8020.000 4.30155
8025.000 4.25126
8030.000 4.30731
8035.000 4.29972
8040.000 4.26200
8045.000 4.21886
8050.000 4.26923
8055.000 4.30428
8060.000 4.30020
8065.000 4.28090
8070.000 4.27294
8075.000 4.25048
8080.000 4.24807
8085.000 4.21618
8090.000 4.24025
8095.000 4.21715
8100.000 4.27086
8105.000 4.29511
8110.000 4.28478
8115.000 4.29433
8120.000 4.29163
8125.000 4.29026
8130.000 4.22445
8135.000 4.21969
8140.000 4.21686
8145.000 4.15858
8150.000 4.10871
8155.000 4.10670
8160.000 4.01287
8165.000 4.03493
8170.000 4.13583
8175.000 4.03524
8180.000 4.02902
8185.000 4.08007
8190.000 4.03332
8195.000 4.01737
8200.000 4.17029
8205.000 4.24745
8210.000 4.18596
8215.000 4.13802
8220.000 4.06464
8225.000 3.84685
8230.000 3.86350
8235.000 4.11141
8240.000 4.16271
8245.000 4.16906
8250.000 4.18344
8255.000 4.12638
8260.000 4.17227
8265.000 4.18426
8270.000 4.08502
8275.000 4.01622
8280.000 4.04131
8285.000 4.03364
8290.000 3.99178
8295.000 4.04959
8300.000 4.01282
8305.000 4.00727
8310.000 4.01103
8315.000 3.99767
8320.000 3.95382
8325.000 3.96654
8330.000 3.94181
8335.000 3.91832
8340.000 3.95862
8345.000 3.97627
8350.000 4.03184
8355.000 4.00755
8360.000 3.99342
8365.000 4.01192
8370.000 4.01094
8375.000 3.98997
8380.000 3.98656
8385.000 3.93478
8390.000 3.97918
8395.000 3.97722
8400.000 3.95679
8405.000 3.94815
8410.000 3.93641
8415.000 3.91565
8420.000 3.90882
8425.000 3.90206
8430.000 3.88810
8435.000 3.86226
8440.000 3.87304
8445.000 3.88012
8450.000 3.93332
8455.000 3.90761
8460.000 3.87568
8465.000 3.83433
8470.000 3.84255
8475.000 3.88511
8480.000 3.90215
8485.000 3.89109
8490.000 3.76568
8495.000 3.51461
8500.000 3.67110
8505.000 3.79852
8510.000 3.77429
8515.000 3.78006
8520.000 3.80369
8525.000 3.73109
8530.000 3.63855
8535.000 3.32721
8540.000 3.00717
8545.000 3.44731
8550.000 3.65343
8555.000 3.72504
8560.000 3.77154
8565.000 3.79523
8570.000 3.76311
8575.000 3.78408
8580.000 3.74153
8585.000 3.76729
8590.000 3.73870
8595.000 3.71457
8600.000 3.74243
8605.000 3.73777
8610.000 3.70025
8615.000 3.70778
8620.000 3.72881
8625.000 3.75478
8630.000 3.74842
8635.000 3.75904
8640.000 3.72453
8645.000 3.67055
8650.000 3.61195
8655.000 3.34211
8660.000 3.09143
8665.000 3.37790
8670.000 3.56681
8675.000 3.63449
8680.000 3.66107
8685.000 3.61606
8690.000 3.68274
8695.000 3.70582
8700.000 3.72465
8705.000 3.72354
8710.000 3.70142
8715.000 3.71242
8720.000 3.71981
8725.000 3.67276
8730.000 3.63954
8735.000 3.62624
8740.000 3.62498
8745.000 3.61226
8750.000 3.58911
8755.000 3.59202
8760.000 3.63131
8765.000 3.64551
8770.000 3.63318
8775.000 3.65834
8780.000 3.67427
8785.000 3.62198
8790.000 3.57896
8795.000 3.61104
8800.000 3.56290
8805.000 3.50273
8810.000 3.59650
8815.000 3.62068
8820.000 3.56199
8825.000 3.58098
8830.000 3.61494
8835.000 3.61748
8840.000 3.56810
8845.000 3.58518
8850.000 3.56952
8855.000 3.50956
8860.000 3.45810
8865.000 3.45721
8870.000 3.52869
8875.000 3.54277
8880.000 3.55135
8885.000 3.55250
8890.000 3.56063
8895.000 3.54818
8900.000 3.57267
8905.000 3.57294
8910.000 3.53314
8915.000 3.56969
8920.000 3.54653
8925.000 3.51799
8930.000 3.57026
8935.000 3.61016
8940.000 3.56800
8945.000 3.53221
8950.000 3.52469
8955.000 3.53348
8960.000 3.47093
8965.000 3.44268
8970.000 3.43997
8975.000 3.46477
8980.000 3.42771
8985.000 3.24358
8990.000 3.22954
8995.000 3.32964
9000.000 3.25714
9005.000 3.26198
9010.000 3.23612
9015.000 3.21491
9020.000 3.33572
9025.000 3.41090
9030.000 3.56169
9035.000 3.63323
9040.000 3.64767
9045.000 3.62762
9050.000 3.58325
9055.000 3.55819
9060.000 3.42167
9065.000 3.41755
9070.000 3.32823
9075.000 3.30046
9080.000 3.25716
9085.000 3.20292
9090.000 3.28143
9095.000 3.31447
9100.000 3.32931
9105.000 3.36937
9110.000 3.43116
9115.000 3.35376
9120.000 3.44932
9125.000 3.41173
9130.000 3.27797
9135.000 3.28759
9140.000 3.40467
9145.000 3.40088
9150.000 3.21643
9155.000 3.20706
9160.000 3.35396
9165.000 3.38846
9170.000 3.20447
9175.000 3.22693
9180.000 3.31143
9185.000 3.38738
9190.000 3.40549
9195.000 3.38129
9200.000 3.43481
9205.000 3.35923
9210.000 3.28228
9215.000 3.26797
9220.000 3.28235
9225.000 3.24124
9230.000 3.26890
9235.000 3.28898
9240.000 3.31930
9245.000 3.32969
9250.000 3.37354
9255.000 3.37187
9260.000 3.45556
9265.000 3.54813
9270.000 3.54197
9275.000 3.42457
9280.000 3.46801
9285.000 3.48164
9290.000 3.44765
9295.000 3.36313
9300.000 3.33457
9305.000 3.25850
9310.000 3.15906
9315.000 2.94665
9320.000 2.97393
9325.000 2.87606
9330.000 2.88793
9335.000 2.68898
9340.000 2.53527
9345.000 2.70539
9350.000 2.95850
9355.000 2.73641
9360.000 3.06404
9365.000 2.93602
9370.000 2.91400
9375.000 3.01324
9380.000 3.10434
9385.000 3.37537
9390.000 3.68457
9395.000 3.72491
9400.000 3.56024
9405.000 3.44292
9410.000 3.27264
9415.000 3.35613
9420.000 3.33711
9425.000 2.99886
9430.000 3.01552
9435.000 3.00493
9440.000 2.73126
9445.000 3.07221
9450.000 3.14405
9455.000 2.92867
9460.000 2.88307
9465.000 3.20879
9470.000 3.23822
9475.000 3.14984
9480.000 3.05257
9485.000 3.32276
9490.000 3.24085
9495.000 2.89054
9500.000 2.93866
9505.000 3.29651
9510.000 3.43333
9515.000 3.03094
9520.000 2.87635
9525.000 3.02165
9530.000 3.13438
9535.000 3.11827
9540.000 3.08750
9545.000 2.86870
9550.000 2.93828
9555.000 2.92002
9560.000 3.00670
9565.000 2.94176
9570.000 3.16864
9575.000 3.17192
9580.000 3.09209
9585.000 3.07567
9590.000 2.86687
9595.000 2.99898
9600.000 3.08779
9605.000 2.96418
9610.000 3.01995
9615.000 2.90957
9620.000 2.87892
9625.000 2.91014
9630.000 2.96320
9635.000 2.90577
9640.000 2.89464
9645.000 2.86096
9650.000 2.92361
9655.000 2.88051
9660.000 2.85965
9665.000 2.91325
9670.000 2.97968
9675.000 3.04717
9680.000 3.04248
9685.000 3.04637
9690.000 3.05898
9695.000 3.07025
9700.000 3.05624
9705.000 3.05055
9710.000 3.02527
9715.000 2.99299
9720.000 2.95884
9725.000 2.93928
9730.000 2.90184
9735.000 2.85437
9740.000 2.83647
9745.000 2.81619
9750.000 2.78985
9755.000 2.76160
9760.000 2.74299
9765.000 2.82499
9770.000 2.79352
9775.000 2.77236
9780.000 2.75778
9785.000 2.76869
9790.000 2.82812
9795.000 2.82253
9800.000 2.84065
9805.000 2.82481
9810.000 2.82323
9815.000 2.82413
9820.000 2.78729
9825.000 2.79827
9830.000 2.81539
9835.000 2.81883
9840.000 2.79627
9845.000 2.78884
9850.000 2.82071
9855.000 2.77579
9860.000 2.77063
9865.000 2.80654
9870.000 2.81667
9875.000 2.78756
9880.000 2.80584
9885.000 2.80862
9890.000 2.79937
9895.000 2.78676
9900.000 2.75280
9905.000 2.78184
9910.000 2.75697
9915.000 2.77397
9920.000 2.80242
9925.000 2.74670
9930.000 2.76609
9935.000 2.80968
9940.000 2.80286
9945.000 2.73634
9950.000 2.74808
9955.000 2.77365
9960.000 2.76904
9965.000 2.75187
9970.000 2.80458
9975.000 2.70753
9980.000 2.75819
9985.000 2.76199
9990.000 2.72410
9995.000 2.69008
10000.000 2.72528
10005.000 2.77073
10010.000 2.74820
10015.000 2.69254
10020.000 2.73183
10025.000 2.80083
10030.000 2.74511
10035.000 2.64863
10040.000 2.63641
10045.000 2.49033
10050.000 2.56583
10055.000 2.61768
10060.000 2.58844
10065.000 2.58803
10070.000 2.61377
10075.000 2.69164
10080.000 2.60953
10085.000 2.62875
10090.000 2.69496
10095.000 2.70306
10100.000 2.64486
10105.000 2.53724
10110.000 2.63820
10115.000 2.64332
10120.000 2.63512
10125.000 2.62444
10130.000 2.61146
10135.000 2.61146
10140.000 2.60520
10145.000 2.60599
10150.000 2.57075
10155.000 2.63012
10160.000 2.66047
10165.000 2.59498
10170.000 2.55162
10175.000 2.57985
10180.000 2.48255
10185.000 2.46805
10190.000 2.45440
10195.000 2.44579
10200.000 2.44642
10205.000 2.45850
10210.000 2.47600
10215.000 2.49091
10220.000 2.49518
10225.000 2.48342
10230.000 2.46071
10235.000 2.43479
10240.000 2.41339
10245.000 2.40280
10250.000 2.40359
10255.000 2.41490
10260.000 2.43586
10265.000 2.46474
10270.000 2.49638
10275.000 2.52474
10280.000 2.54380
10285.000 2.54902
10290.000 2.54196
10295.000 2.52567
10300.000 2.50322
10305.000 2.50976
10310.000 2.49594
10315.000 2.48454
10320.000 2.47756
10325.000 2.47633
10330.000 2.47957
10335.000 2.48536
10340.000 2.49174
10345.000 2.49710
10350.000 2.50105
10355.000 2.50350
10360.000 2.50437
10365.000 2.50361
10370.000 2.50140
10375.000 2.49795
10380.000 2.49343
10385.000 2.48826
10390.000 2.48349
10395.000 2.48040
10400.000 2.48023
10405.000 2.48369
10410.000 2.48922
10415.000 2.49470
10420.000 2.49806
10425.000 2.49772
10430.000 2.49439
10435.000 2.48933
10440.000 2.48381
10445.000 2.47872
10450.000 2.47358
10455.000 2.46754
10460.000 2.45975
10465.000 2.45009
10470.000 2.44129
10475.000 2.43677
10480.000 2.44000
10485.000 2.45269
10490.000 2.46981
10495.000 2.48458
10500.000 2.49024
10505.000 2.48213
10510.000 2.46401
10515.000 2.44173
10520.000 2.42117
10525.000 2.40695
10530.000 2.39873
10535.000 2.39495
10540.000 2.39404
10545.000 2.39447
10550.000 2.39492
10555.000 2.39411
10560.000 2.39077
10565.000 2.38412
10570.000 2.37535
10575.000 2.36618
10580.000 2.35830
10585.000 2.35308
10590.000 2.35061
10595.000 2.35062
10600.000 2.35288
10605.000 2.35708
10610.000 2.36277
10615.000 2.36946
10620.000 2.37666
10625.000 2.35096
10630.000 2.34809
10635.000 2.34522
10640.000 2.34235
10645.000 2.33949
10650.000 2.33663
10655.000 2.33377
10660.000 2.33092
10665.000 2.32807
10670.000 2.32522
10675.000 2.32238
10680.000 2.31954
10685.000 2.31670
10690.000 2.31387
10695.000 2.31104
10700.000 2.30821
10705.000 2.30539
10710.000 2.30257
10715.000 2.29975
10720.000 2.29694
10725.000 2.29412
10730.000 2.29132
10735.000 2.28852
10740.000 2.28572
10745.000 2.28292
10750.000 2.28012
10755.000 2.27733
10760.000 2.27454
10765.000 2.27176
10770.000 2.26898
10775.000 2.26620
10780.000 2.26343
10785.000 2.26065
10790.000 2.25788
10795.000 2.25512
10800.000 2.25236
10805.000 2.24960
10810.000 2.24684
10815.000 2.24409
10820.000 2.24135
10825.000 2.23861
10830.000 2.23586
10835.000 2.23312
10840.000 2.23039
10845.000 2.22765
10850.000 2.22493
10855.000 2.22220
10860.000 2.21948
10865.000 2.21676
10870.000 2.21404
10875.000 2.21133
10880.000 2.20862
10885.000 2.20592
10890.000 2.20322
10895.000 2.20052
10900.000 2.19782
10905.000 2.19513
10910.000 2.19244
10915.000 2.18975
10920.000 2.18707
10925.000 2.18439
10930.000 2.18171
10935.000 2.17904
10940.000 2.17637
10945.000 2.17371
10950.000 2.17104
10955.000 2.16838
10960.000 2.16572
10965.000 2.16307
10970.000 2.16042
10975.000 2.15777
10980.000 2.15513
10985.000 2.15249
10990.000 2.14985
10995.000 2.14722
11000.000 2.14459
11005.000 2.14197
11010.000 2.13934
11015.000 2.13672
11020.000 2.13410
11025.000 2.13148
11030.000 2.12887
11035.000 2.12626
11040.000 2.12366
11045.000 2.12106
11050.000 2.11846
11055.000 2.11587
11060.000 2.11328
11065.000 2.11069
11070.000 2.10810
11075.000 2.10552
11080.000 2.10295
11085.000 2.10037
11090.000 2.09780
11095.000 2.09523
11100.000 2.09266
11105.000 2.09010
11110.000 2.08754
11115.000 2.08499
11120.000 2.08243
11125.000 2.07989
11130.000 2.07734
11135.000 2.07480
11140.000 2.07226
11145.000 2.06972
11150.000 2.06719
11155.000 2.06466
11160.000 2.06213
11165.000 2.05961
11170.000 2.05709
11175.000 2.05457
11180.000 2.05206
11185.000 2.04955
11190.000 2.04704
11195.000 2.04454
11200.000 2.04204
11205.000 2.03954
11210.000 2.03704
11215.000 2.03455
11220.000 2.03207
11225.000 2.02958
11230.000 2.02711
11235.000 2.02462
11240.000 2.02215
11245.000 2.01968
11250.000 2.01721
11255.000 2.01475
11260.000 2.01229
11265.000 2.00983
11270.000 2.00737
11275.000 2.00492
11280.000 2.00247
11285.000 2.00003
11290.000 1.99759
11295.000 1.99515
11300.000 1.99271
11305.000 1.99028
11310.000 1.98785
11315.000 1.98542
11320.000 1.98300
11325.000 1.98058
11330.000 1.97816
11335.000 1.97575
11340.000 1.97334
11345.000 1.97093
11350.000 1.96853
11355.000 1.96613
11360.000 1.96373
11365.000 1.96134
11370.000 1.95895
11375.000 1.95656
11380.000 1.95418
11385.000 1.95180
11390.000 1.94942
11395.000 1.94704
11400.000 1.94467
11405.000 1.94230
11410.000 1.93994
11415.000 1.93758
11420.000 1.93522
11425.000 1.93286
11430.000 1.93052
11435.000 1.92817
11440.000 1.92582
11445.000 1.92348
11450.000 1.92114
11455.000 1.91881
11460.000 1.91647
11465.000 1.91415
11470.000 1.91182
11475.000 1.90950
11480.000 1.90718
11485.000 1.90486
11490.000 1.90254
11495.000 1.90024
11500.000 1.89793
11505.000 1.89562
11510.000 1.89332
11515.000 1.89102
11520.000 1.88873
11525.000 1.88644
11530.000 1.88415
11535.000 1.88187
11540.000 1.87959
11545.000 1.87731
11550.000 1.87503
11555.000 1.87276
11560.000 1.87050
11565.000 1.86823
11570.000 1.86597
11575.000 1.86371
11580.000 1.86146
11585.000 1.85921
11590.000 1.85696
11595.000 1.85471
11600.000 1.85247
11605.000 1.85023
11610.000 1.84799
11615.000 1.84575
11620.000 1.84353
11625.000 1.84130
11630.000 1.83907
11635.000 1.83686
11640.000 1.83464
11645.000 1.83242
11650.000 1.83022
11655.000 1.82801
11660.000 1.82581
11665.000 1.82361
11670.000 1.82141
11675.000 1.81921
11680.000 1.81702
11685.000 1.81483
11690.000 1.81265
11695.000 1.81047
11700.000 1.80829
11705.000 1.80611
11710.000 1.80394
11715.000 1.80177
11720.000 1.79960
11725.000 1.79744
11730.000 1.79528
11735.000 1.79313
11740.000 1.79097
11745.000 1.78882
11750.000 1.78667
11755.000 1.78453
11760.000 1.78239
11765.000 1.78026
11770.000 1.77812
11775.000 1.77599
11780.000 1.77387
11785.000 1.77174
11790.000 1.76962
11795.000 1.76750
11800.000 1.76539
11805.000 1.76327
11810.000 1.76116
11815.000 1.75906
11820.000 1.75696
11825.000 1.75486
11830.000 1.75276
11835.000 1.75067
11840.000 1.74858
11845.000 1.74649
11850.000 1.74441
11855.000 1.74233
11860.000 1.74026
11865.000 1.73818
11870.000 1.73611
11875.000 1.73404
11880.000 1.73198
11885.000 1.72992
11890.000 1.72786
11895.000 1.72580
11900.000 1.72376
11905.000 1.72170
11910.000 1.71966
11915.000 1.71762
11920.000 1.71558
11925.000 1.71354
11930.000 1.71151
11935.000 1.70949
11940.000 1.70746
11945.000 1.70544
11950.000 1.70342
11955.000 1.70140
11960.000 1.69939
11965.000 1.69738
11970.000 1.69537
11975.000 1.69336
11980.000 1.69137
11985.000 1.68937
11990.000 1.68738
11995.000 1.68539
12000.000 1.68340
12005.000 1.68141
12010.000 1.67943
12015.000 1.67745
12020.000 1.67548
12025.000 1.67350
12030.000 1.67153
12035.000 1.66957
12040.000 1.66760
12045.000 1.66565
12050.000 1.66369
12055.000 1.66174
12060.000 1.65979
12065.000 1.65784
12070.000 1.65590
12075.000 1.65396
12080.000 1.65202
12085.000 1.65008
12090.000 1.64816
12095.000 1.64623
12100.000 1.64430
12105.000 1.64238
12110.000 1.64046
12115.000 1.63855
12120.000 1.63663
12125.000 1.63473
12130.000 1.63282
12135.000 1.63092
12140.000 1.62902
12145.000 1.62712
12150.000 1.62523
12155.000 1.62334
12160.000 1.62145
12165.000 1.61957
12170.000 1.61769
12175.000 1.61581
12180.000 1.61393
12185.000 1.61207
12190.000 1.61020
12195.000 1.60833
12200.000 1.60647
12205.000 1.60461
12210.000 1.60276
12215.000 1.60091
12220.000 1.59906
12225.000 1.59721
12230.000 1.59537
12235.000 1.59353
12240.000 1.59170
12245.000 1.58986
12250.000 1.58803
12255.000 1.58620
12260.000 1.58437
12265.000 1.58255
12270.000 1.58074
12275.000 1.57892
12280.000 1.57711
12285.000 1.57530
12290.000 1.57350
12295.000 1.57169
12300.000 1.56989
12305.000 1.56810
12310.000 1.56631
12315.000 1.56452
12320.000 1.56273
12325.000 1.56094
12330.000 1.55916
12335.000 1.55739
12340.000 1.55561
12345.000 1.55384
12350.000 1.55207
12355.000 1.55031
12360.000 1.54854
12365.000 1.54679
12370.000 1.54503
12375.000 1.54327
12380.000 1.54152
12385.000 1.53977
12390.000 1.53803
12395.000 1.53629
12400.000 1.53455
12405.000 1.53281
12410.000 1.53108
12415.000 1.52935
12420.000 1.52763
12425.000 1.52590
12430.000 1.52418
12435.000 1.52247
12440.000 1.52075
12445.000 1.51904
12450.000 1.51733
12455.000 1.51562
12460.000 1.51392
12465.000 1.51222
12470.000 1.51052
12475.000 1.50883
12480.000 1.50714
12485.000 1.50545
12490.000 1.50377
12495.000 1.50209
12500.000 1.50041
12505.000 1.49873
12510.000 1.49706
12515.000 1.49539
12520.000 1.49372
12525.000 1.49205
12530.000 1.49039
12535.000 1.48874
12540.000 1.48708
12545.000 1.48543
12550.000 1.48378
12555.000 1.48213
12560.000 1.48048
12565.000 1.47884
12570.000 1.47720
12575.000 1.47557
12580.000 1.47394
12585.000 1.47231
12590.000 1.47068
12595.000 1.46906
12600.000 1.46743
12605.000 1.46581
12610.000 1.46420
12615.000 1.46259
12620.000 1.46097
12625.000 1.45937
12630.000 1.45776
12635.000 1.45616
12640.000 1.45456
12645.000 1.45297
12650.000 1.45137
12655.000 1.44979
12660.000 1.44820
12665.000 1.44661
12670.000 1.44503
12675.000 1.44345
12680.000 1.44188
12685.000 1.44031
12690.000 1.43873
12695.000 1.43717
12700.000 1.43560
12705.000 1.43404
12710.000 1.43248
12715.000 1.43093
12720.000 1.42937
12725.000 1.42781
12730.000 1.42627
12735.000 1.42473
12740.000 1.42318
12745.000 1.42164
12750.000 1.42011
12755.000 1.41857
12760.000 1.41704
12765.000 1.41551
12770.000 1.41398
12775.000 1.41246
12780.000 1.41094
12785.000 1.40942
12790.000 1.40790
12795.000 1.40639
12800.000 1.40488
12805.000 1.40337
12810.000 1.40186
12815.000 1.40036
12820.000 1.39887
12825.000 1.39737
12830.000 1.39588
12835.000 1.39438
12840.000 1.39289
12845.000 1.39141
12850.000 1.38992
12855.000 1.38845
12860.000 1.38697
12865.000 1.38549
12870.000 1.38402
12875.000 1.38255
12880.000 1.38109
12885.000 1.37962
12890.000 1.37816
12895.000 1.37670
12900.000 1.37524
12905.000 1.37379
12910.000 1.37233
12915.000 1.37089
12920.000 1.36944
12925.000 1.36799
12930.000 1.36656
12935.000 1.36512
12940.000 1.36368
12945.000 1.36225
12950.000 1.36081
12955.000 1.35939
12960.000 1.35796
12965.000 1.35654
12970.000 1.35512
12975.000 1.35370
12980.000 1.35229
12985.000 1.35088
12990.000 1.34946
12995.000 1.34805
13000.000 1.34665
13005.000 1.34525
13010.000 1.34385
13015.000 1.34245
13020.000 1.34106
13025.000 1.33967
13030.000 1.33828
13035.000 1.33689
13040.000 1.33551
13045.000 1.33412
13050.000 1.33274
13055.000 1.33137
13060.000 1.32999
13065.000 1.32862
13070.000 1.32725
13075.000 1.32588
13080.000 1.32452
13085.000 1.32316
13090.000 1.32179
13095.000 1.32044
13100.000 1.31909
13105.000 1.31773
13110.000 1.31638
13115.000 1.31504
13120.000 1.31369
13125.000 1.31235
13130.000 1.31101
13135.000 1.30967
13140.000 1.30834
13145.000 1.30700
13150.000 1.30568
13155.000 1.30435
13160.000 1.30302
13165.000 1.30170
13170.000 1.30038
13175.000 1.29906
13180.000 1.29775
13185.000 1.29644
13190.000 1.29512
13195.000 1.29381
13200.000 1.29251
13205.000 1.29120
13210.000 1.28991
13215.000 1.28861
13220.000 1.28731
13225.000 1.28602
13230.000 1.28473
13235.000 1.28344
13240.000 1.28215
13245.000 1.28086
13250.000 1.27959
13255.000 1.27830
13260.000 1.27703
13265.000 1.27576
13270.000 1.27448
13275.000 1.27321
13280.000 1.27194
13285.000 1.27068
13290.000 1.26941
13295.000 1.26815
13300.000 1.26690
13305.000 1.26564
13310.000 1.26439
13315.000 1.26314
13320.000 1.26189
13325.000 1.26064
13330.000 1.25939
13335.000 1.25815
13340.000 1.25692
13345.000 1.25567
13350.000 1.25444
13355.000 1.25321
13360.000 1.25198
13365.000 1.25075
13370.000 1.24952
13375.000 1.24830
13380.000 1.24708
13385.000 1.24586
13390.000 1.24464
13395.000 1.24342
13400.000 1.24222
13405.000 1.24100
13410.000 1.23980
13415.000 1.23859
13420.000 1.23738
13425.000 1.23619
13430.000 1.23499
13435.000 1.23379
13440.000 1.23260
13445.000 1.23140
13450.000 1.23021
13455.000 1.22903
13460.000 1.22784
13465.000 1.22666
13470.000 1.22547
13475.000 1.22429
13480.000 1.22312
13485.000 1.22194
13490.000 1.22077
13495.000 1.21960
13500.000 1.21843
13505.000 1.21727
13510.000 1.21610
13515.000 1.21494
13520.000 1.21378
13525.000 1.21263
13530.000 1.21147
13535.000 1.21032
13540.000 1.20916
13545.000 1.20802
13550.000 1.20687
13555.000 1.20573
13560.000 1.20459
13565.000 1.20344
13570.000 1.20231
13575.000 1.20117
13580.000 1.20004
13585.000 1.19891
13590.000 1.19778
13595.000 1.19665
13600.000 1.19552
13605.000 1.19440
13610.000 1.19328
13615.000 1.19216
13620.000 1.19104
13625.000 1.18993
13630.000 1.18882
13635.000 1.18771
13640.000 1.18660
13645.000 1.18549
13650.000 1.18439
13655.000 1.18328
13660.000 1.18218
13665.000 1.18109
13670.000 1.17999
13675.000 1.17890
13680.000 1.17780
13685.000 1.17672
13690.000 1.17563
13695.000 1.17455
13700.000 1.17346
13705.000 1.17238
13710.000 1.17130
13715.000 1.17022
13720.000 1.16914
13725.000 1.16807
13730.000 1.16700
13735.000 1.16593
13740.000 1.16486
13745.000 1.16380
13750.000 1.16273
13755.000 1.16167
13760.000 1.16061
13765.000 1.15956
13770.000 1.15850
13775.000 1.15744
13780.000 1.15639
13785.000 1.15535
13790.000 1.15429
13795.000 1.15325
13800.000 1.15221
13805.000 1.15116
13810.000 1.15013
13815.000 1.14908
13820.000 1.14805
13825.000 1.14702
13830.000 1.14599
13835.000 1.14495
13840.000 1.14393
13845.000 1.14290
13850.000 1.14187
13855.000 1.14085
13860.000 1.13983
13865.000 1.13881
13870.000 1.13780
13875.000 1.13678
13880.000 1.13577
13885.000 1.13476
13890.000 1.13375
13895.000 1.13274
13900.000 1.13173
13905.000 1.13073
13910.000 1.12973
13915.000 1.12873
13920.000 1.12773
13925.000 1.12674
13930.000 1.12574
13935.000 1.12475
13940.000 1.12375
13945.000 1.12277
13950.000 1.12178
13955.000 1.12080
13960.000 1.11981
13965.000 1.11883
13970.000 1.11785
13975.000 1.11688
13980.000 1.11590
13985.000 1.11492
13990.000 1.11395
13995.000 1.11298
14000.000 1.11202
14005.000 1.11105
14010.000 1.11008
14015.000 1.10912
14020.000 1.10816
14025.000 1.10720
14030.000 1.10624
14035.000 1.10528
14040.000 1.10433
14045.000 1.10338
14050.000 1.10242
14055.000 1.10148
14060.000 1.10053
14065.000 1.09959
14070.000 1.09864
14075.000 1.09770
14080.000 1.09676
14085.000 1.09582
14090.000 1.09488
14095.000 1.09395
14100.000 1.09301
14105.000 1.09208
14110.000 1.09115
14115.000 1.09023
14120.000 1.08930
14125.000 1.08837
14130.000 1.08746
14135.000 1.08653
14140.000 1.08562
14145.000 1.08470
14150.000 1.08378
14155.000 1.08286
14160.000 1.08195
14165.000 1.08104
14170.000 1.08013
14175.000 1.07922
14180.000 1.07832
14185.000 1.07741
14190.000 1.07651
14195.000 1.07561
14200.000 1.07471
14205.000 1.07381
14210.000 1.07292
14215.000 1.07202
14220.000 1.07113
14225.000 1.07024
14230.000 1.06935
14235.000 1.06846
14240.000 1.06758
14245.000 1.06669
14250.000 1.06581
14255.000 1.06493
14260.000 1.06405
14265.000 1.06317
14270.000 1.06230
14275.000 1.06142
14280.000 1.06055
14285.000 1.05967
14290.000 1.05880
14295.000 1.05794
14300.000 1.05707
14305.000 1.05339
14310.000 1.04570
14315.000 1.04166
14320.000 1.04360
14325.000 1.05158
14330.000 1.05915
14335.000 1.06357
14340.000 1.06472
14345.000 1.06350
14350.000 1.06098
14355.000 1.05837
14360.000 1.05676
14365.000 1.05611
14370.000 1.05497
14375.000 1.05231
14380.000 1.04869
14385.000 1.04478
14390.000 1.04067
14395.000 1.03649
14400.000 1.03286
14405.000 1.03081
14410.000 1.03098
14415.000 1.03296
14420.000 1.03559
14425.000 1.03784
14430.000 1.03925
14435.000 1.03907
14440.000 1.03756
14445.000 1.03465
14450.000 1.03058
14455.000 1.02611
14460.000 1.02321
14465.000 1.02355
14470.000 1.02680
14475.000 1.03129
14480.000 1.03556
14485.000 1.03877
14490.000 1.04038
14495.000 1.03920
14500.000 1.04222
14505.000 1.02001
14510.000 0.99929
14515.000 0.99211
14520.000 0.99770
14525.000 1.00913
14530.000 1.02083
14535.000 1.02983
14540.000 1.03441
14545.000 1.03300
14550.000 1.02401
14555.000 1.01137
14560.000 1.00000
14565.000 0.99449
14570.000 0.99537
14575.000 1.00048
14580.000 1.00722
14585.000 1.01356
14590.000 1.01797
14595.000 1.01936
14600.000 1.01756
14605.000 1.01371
14610.000 1.00992
14615.000 1.00784
14620.000 1.00784
14625.000 1.00908
14630.000 1.01026
14635.000 1.01014
14640.000 1.00798
14645.000 1.00375
14650.000 0.99828
14655.000 0.99314
14660.000 0.99013
14665.000 0.99075
14670.000 0.99386
14675.000 0.99819
14680.000 1.00169
14685.000 1.00259
14690.000 0.99964
14695.000 0.99223
14700.000 0.98095
14705.000 0.96770
14710.000 0.95707
14715.000 0.95568
14720.000 0.96386
14725.000 0.97751
14730.000 0.99140
14735.000 1.00198
14740.000 1.00743
14745.000 1.00705
14750.000 1.00095
14755.000 0.99028
14760.000 0.97788
14765.000 0.96789
14770.000 0.96386
14775.000 0.96573
14780.000 0.97193
14785.000 0.97785
14790.000 0.98070
14795.000 0.97854
14800.000 0.97121
14805.000 0.96082
14810.000 0.95145
14815.000 0.94704
14820.000 0.94919
14825.000 0.95684
14830.000 0.96744
14835.000 0.97816
14840.000 0.98623
14845.000 0.98823
14850.000 0.98148
14855.000 0.96630
14860.000 0.94599
14865.000 0.92628
14870.000 0.91295
14875.000 0.90847
14880.000 0.91230
14885.000 0.92188
14890.000 0.93354
14895.000 0.94254
14900.000 0.94788
14905.000 0.95089
14910.000 0.95236
14915.000 0.95508
14920.000 0.95912
14925.000 0.96290
14930.000 0.96521
14935.000 0.96493
14940.000 0.96169
14945.000 0.95619
14950.000 0.94986
14955.000 0.94426
14960.000 0.94056
14965.000 0.93926
14970.000 0.94006
14975.000 0.94202
14980.000 0.94414
14985.000 0.94647
14990.000 0.94732
14995.000 0.94548
15000.000 0.93996
15005.000 0.93401
15010.000 0.91587
15015.000 0.88739
15020.000 0.85546
15025.000 0.82791
15030.000 0.81080
15035.000 0.80826
15040.000 0.82081
15045.000 0.84541
15050.000 0.87613
15055.000 0.90561
15060.000 0.92599
15065.000 0.93331
15070.000 0.93490
15075.000 0.93230
15080.000 0.92779
15085.000 0.92274
15090.000 0.91878
15095.000 0.91696
15100.000 0.91738
15105.000 0.91922
15110.000 0.92109
15115.000 0.92174
15120.000 0.92045
15125.000 0.91731
15130.000 0.91322
15135.000 0.90933
15140.000 0.90701
15145.000 0.90718
15150.000 0.90933
15155.000 0.91251
15160.000 0.91535
15165.000 0.91679
15170.000 0.91644
15175.000 0.91515
15180.000 0.91426
15185.000 0.91483
15190.000 0.91709
15195.000 0.92023
15200.000 0.92265
15205.000 0.92264
15210.000 0.91908
15215.000 0.91203
15220.000 0.90276
15225.000 0.89341
15230.000 0.88626
15235.000 0.88295
15240.000 0.88400
15245.000 0.88858
15250.000 0.89487
15255.000 0.90060
15260.000 0.90419
15265.000 0.90426
15270.000 0.90104
15275.000 0.89634
15280.000 0.89167
15285.000 0.88887
15290.000 0.88903
15295.000 0.89222
15300.000 0.89741
15305.000 0.90288
15310.000 0.90681
15315.000 0.90785
15320.000 0.90551
15325.000 0.90026
15330.000 0.89339
15335.000 0.88659
15340.000 0.88149
15345.000 0.87900
15350.000 0.87913
15355.000 0.88092
15360.000 0.88288
15365.000 0.88349
15370.000 0.88179
15375.000 0.87776
15380.000 0.87237
15385.000 0.86729
15390.000 0.86407
15395.000 0.86484
15400.000 0.86861
15405.000 0.87476
15410.000 0.88125
15415.000 0.88595
15420.000 0.88720
15425.000 0.88445
15430.000 0.87848
15435.000 0.87108
15440.000 0.86452
15445.000 0.86068
15450.000 0.86043
15455.000 0.86333
15460.000 0.86796
15465.000 0.87242
15470.000 0.87509
15475.000 0.87510
15480.000 0.87266
15485.000 0.86885
15490.000 0.86520
15495.000 0.86297
15500.000 0.86257
15505.000 0.86359
15510.000 0.86480
15515.000 0.86489
15520.000 0.86264
15525.000 0.85738
15530.000 0.85049
15535.000 0.84308
15540.000 0.83697
15545.000 0.83358
15550.000 0.83357
15555.000 0.83660
15560.000 0.84154
15565.000 0.84683
15570.000 0.85101
15575.000 0.85310
15580.000 0.85288
15585.000 0.85071
15590.000 0.84744
15595.000 0.84408
15600.000 0.84144
15605.000 0.84001
15610.000 0.83989
15615.000 0.84089
15620.000 0.84269
15625.000 0.84484
15630.000 0.84687
15635.000 0.84833
15640.000 0.84884
15645.000 0.84814
15650.000 0.84621
15655.000 0.84280
15660.000 0.83867
15665.000 0.83422
15670.000 0.83022
15675.000 0.82734
15680.000 0.82547
15685.000 0.82321
15690.000 0.82079
15695.000 0.81988
15700.000 0.81973
15705.000 0.81980
15710.000 0.81958
15715.000 0.81871
15720.000 0.81757
15725.000 0.81609
15730.000 0.81234
15735.000 0.80689
15740.000 0.80066
15745.000 0.79944
15750.000 0.78512
15755.000 0.80113
15760.000 0.79874
15765.000 0.76189
15770.000 0.75555
15775.000 0.79127
15780.000 0.81531
15785.000 0.81952
15790.000 0.81705
15795.000 0.82324
15800.000 0.82347
15805.000 0.82502
15810.000 0.82636
15815.000 0.81341
15820.000 0.79579
15825.000 0.79960
15830.000 0.81239
15835.000 0.79438
15840.000 0.80461
15845.000 0.82256
15850.000 0.82346
15855.000 0.81937
15860.000 0.81559
15865.000 0.80439
15870.000 0.79244
15875.000 0.78791
15880.000 0.77289
15885.000 0.74768
15890.000 0.72599
15895.000 0.73364
15900.000 0.76059
15905.000 0.77657
15910.000 0.78696
15915.000 0.79562
15920.000 0.80276
15925.000 0.80748
15930.000 0.81092
15935.000 0.81108
15940.000 0.80210
15945.000 0.79405
15950.000 0.79686
15955.000 0.78470
15960.000 0.76355
15965.000 0.76502
15970.000 0.77802
15975.000 0.79050
15980.000 0.79050
15985.000 0.79030
15990.000 0.80326
15995.000 0.79819
16000.000 0.78986
16005.000 0.77190
16010.000 0.75656
16015.000 0.76492
16020.000 0.77195
16025.000 0.76819
16030.000 0.77618
16035.000 0.77992
16040.000 0.76796
16045.000 0.76911
16050.000 0.78505
16055.000 0.79039
16060.000 0.78129
16065.000 0.78016
16070.000 0.78238
16075.000 0.76689
16080.000 0.76016
16085.000 0.76163
16090.000 0.75490
16095.000 0.74044
16100.000 0.73554
16105.000 0.74186
16110.000 0.75003
16115.000 0.75582
16120.000 0.75695
16125.000 0.76269
16130.000 0.76100
16135.000 0.76408
16140.000 0.76861
16145.000 0.77162
16150.000 0.76616
16155.000 0.75202
16160.000 0.74883
16165.000 0.74111
16170.000 0.74641
16175.000 0.75266
16180.000 0.74626
16185.000 0.74493
16190.000 0.75408
16195.000 0.75060
16200.000 0.73598
16205.000 0.73877
16210.000 0.74059
16215.000 0.73619
16220.000 0.74557
16225.000 0.75804
16230.000 0.75782
16235.000 0.75625
16240.000 0.75858
16245.000 0.75259
16250.000 0.75620
16255.000 0.75957
16260.000 0.75811
16265.000 0.75743
16270.000 0.75649
16275.000 0.75400
16280.000 0.75225
16285.000 0.74852
16290.000 0.74643
16295.000 0.74778
16300.000 0.74533
16305.000 0.74454
16310.000 0.74225
16315.000 0.73030
16320.000 0.72249
16325.000 0.73180
16330.000 0.73529
16335.000 0.73885
16340.000 0.74607
16345.000 0.74878
16350.000 0.74347
16355.000 0.73897
16360.000 0.73480
16365.000 0.72297
16370.000 0.71717
16375.000 0.71877
16380.000 0.70264
16385.000 0.69343
16390.000 0.69564
16395.000 0.69910
16400.000 0.70303
16405.000 0.70698
16410.000 0.71072
16415.000 0.69717
16420.000 0.69804
16425.000 0.69917
16430.000 0.70098
16435.000 0.70366
16440.000 0.70702
16445.000 0.71062
16450.000 0.71374
16455.000 0.71661
16460.000 0.71929
16465.000 0.72080
16470.000 0.72092
16475.000 0.71993
16480.000 0.71840
16485.000 0.71694
16490.000 0.71633
16495.000 0.71660
16500.000 0.71768
16505.000 0.71922
16510.000 0.72068
16515.000 0.72155
16520.000 0.72147
16525.000 0.72036
16530.000 0.71845
16535.000 0.71619
16540.000 0.71409
16545.000 0.71254
16550.000 0.71173
16555.000 0.71162
16560.000 0.71197
16565.000 0.71251
16570.000 0.71299
16575.000 0.71332
16580.000 0.71354
16585.000 0.71376
16590.000 0.71414
16595.000 0.71476
16600.000 0.71558
16605.000 0.71636
16610.000 0.71670
16615.000 0.71614
16620.000 0.71432
16625.000 0.71096
16630.000 0.70621
16635.000 0.70027
16640.000 0.69358
16645.000 0.68721
16650.000 0.68182
16655.000 0.67813
16660.000 0.67656
16665.000 0.67722
16670.000 0.67986
16675.000 0.68400
16680.000 0.68895
16685.000 0.69395
16690.000 0.69830
16695.000 0.70147
16700.000 0.70308
16705.000 0.70301
16710.000 0.70138
16715.000 0.69846
16720.000 0.69492
16725.000 0.69022
16730.000 0.68494
16735.000 0.68070
16740.000 0.67761
16745.000 0.67546
16750.000 0.67433
16755.000 0.67405
16760.000 0.67421
16765.000 0.67432
16770.000 0.67384
16775.000 0.67235
16780.000 0.66973
16785.000 0.66602
16790.000 0.66135
16795.000 0.65669
16800.000 0.65273
16805.000 0.65020
16810.000 0.64970
16815.000 0.65150
16820.000 0.65543
16825.000 0.66092
16830.000 0.66709
16835.000 0.67294
16840.000 0.67750
16845.000 0.68001
16850.000 0.68092
16855.000 0.67976
16860.000 0.67580
16865.000 0.67050
16870.000 0.66607
16875.000 0.66302
16880.000 0.66179
16885.000 0.66236
16890.000 0.66426
16895.000 0.66678
16900.000 0.66907
16905.000 0.67043
16910.000 0.67048
16915.000 0.66923
16920.000 0.66709
16925.000 0.66474
16930.000 0.66270
16935.000 0.66200
16940.000 0.66278
16945.000 0.66464
16950.000 0.66726
16955.000 0.66979
16960.000 0.67140
16965.000 0.67141
16970.000 0.66951
16975.000 0.66583
16980.000 0.66093
16985.000 0.65566
16990.000 0.65089
16995.000 0.64732
17000.000 0.64534
17005.000 0.64494
17010.000 0.64570
17015.000 0.64695
17020.000 0.64798
17025.000 0.64821
17030.000 0.64740
17035.000 0.64564
17040.000 0.64336
17045.000 0.64118
17050.000 0.63968
17055.000 0.63926
17060.000 0.64000
17065.000 0.64164
17070.000 0.64364
17075.000 0.64536
17080.000 0.64616
17085.000 0.64588
17090.000 0.64432
17095.000 0.64169
17100.000 0.63897
17105.000 0.63666
17110.000 0.63533
17115.000 0.63525
17120.000 0.63630
17125.000 0.63802
17130.000 0.63972
17135.000 0.64070
17140.000 0.64041
17145.000 0.63866
17150.000 0.63561
17155.000 0.63184
17160.000 0.62811
17165.000 0.62517
17170.000 0.62356
17175.000 0.62346
17180.000 0.62469
17185.000 0.62670
17190.000 0.62880
17195.000 0.63028
17200.000 0.63068
17205.000 0.62983
17210.000 0.62794
17215.000 0.62547
17220.000 0.62301
17225.000 0.62111
17230.000 0.62010
17235.000 0.62004
17240.000 0.62065
17245.000 0.62152
17250.000 0.62189
17255.000 0.62130
17260.000 0.61967
17265.000 0.61692
17270.000 0.61338
17275.000 0.61018
17280.000 0.60989
17285.000 0.60904
17290.000 0.60515
17295.000 0.60250
17300.000 0.60052
17305.000 0.59885
17310.000 0.59706
17315.000 0.59468
17320.000 0.59156
17325.000 0.58782
17330.000 0.58392
17335.000 0.58045
17340.000 0.57807
17345.000 0.57719
17350.000 0.57792
17355.000 0.57999
17360.000 0.58279
17365.000 0.58554
17370.000 0.58753
17375.000 0.58826
17380.000 0.58765
17385.000 0.58602
17390.000 0.58411
17395.000 0.58284
17400.000 0.58281
17405.000 0.58523
17410.000 0.58831
17415.000 0.58856
17420.000 0.59321
17425.000 0.59922
17430.000 0.60353
17435.000 0.60552
17440.000 0.60453
17445.000 0.60070
17450.000 0.59476
17455.000 0.58791
17460.000 0.58152
17465.000 0.57683
17470.000 0.57466
17475.000 0.57523
17480.000 0.57815
17485.000 0.58253
17490.000 0.58722
17495.000 0.59112
17500.000 0.59337
17505.000 0.59363
17510.000 0.59200
17515.000 0.58903
17520.000 0.58550
17525.000 0.58226
17530.000 0.58003
17535.000 0.57923
17540.000 0.57994
17545.000 0.58187
17550.000 0.58449
17555.000 0.58713
17560.000 0.58919
17565.000 0.59019
17570.000 0.59007
17575.000 0.58884
17580.000 0.58645
17585.000 0.58364
17590.000 0.58070
17595.000 0.57782
17600.000 0.57519
17605.000 0.57283
17610.000 0.57073
17615.000 0.56884
17620.000 0.56722
17625.000 0.56596
17630.000 0.56523
17635.000 0.56522
17640.000 0.56602
17645.000 0.56760
17650.000 0.56973
17655.000 0.57204
17660.000 0.57408
17665.000 0.57542
17670.000 0.57575
17675.000 0.57504
17680.000 0.57343
17685.000 0.57130
17690.000 0.56912
17695.000 0.56737
17700.000 0.56644
17705.000 0.56646
17710.000 0.56735
17715.000 0.56876
17720.000 0.57015
17725.000 0.57094
17730.000 0.57062
17735.000 0.56891
17740.000 0.56595
17745.000 0.56201
17750.000 0.55764
17755.000 0.55383
17760.000 0.55118
17765.000 0.55018
17770.000 0.55100
17775.000 0.55342
17780.000 0.55686
17785.000 0.56047
17790.000 0.56334
17795.000 0.56467
17800.000 0.56397
17805.000 0.56115
17810.000 0.55655
17815.000 0.55079
17820.000 0.54470
17825.000 0.53916
17830.000 0.53495
17835.000 0.53271
17840.000 0.53271
17845.000 0.53488
17850.000 0.53881
17855.000 0.54376
17860.000 0.54892
17865.000 0.55325
17870.000 0.55590
17875.000 0.55667
17880.000 0.55589
17885.000 0.55400
17890.000 0.55141
17895.000 0.54842
17900.000 0.54530
17905.000 0.54236
17910.000 0.53973
17915.000 0.53776
17920.000 0.53704
17925.000 0.53738
17930.000 0.53867
17935.000 0.54072
17940.000 0.54300
17945.000 0.54509
17950.000 0.54670
17955.000 0.54770
17960.000 0.54803
17965.000 0.54764
17970.000 0.54652
17975.000 0.54467
17980.000 0.54215
17985.000 0.53912
17990.000 0.53584
17995.000 0.53250
18000.000 0.52992
18005.000 0.52874
18010.000 0.52837
18015.000 0.52881
18020.000 0.52986
18025.000 0.53110
18030.000 0.53213
18035.000 0.53262
18040.000 0.53237
18045.000 0.53135
18050.000 0.52969
18055.000 0.52768
18060.000 0.52572
18065.000 0.52420
18070.000 0.52344
18075.000 0.52355
18080.000 0.52441
18085.000 0.52576
18090.000 0.52714
18095.000 0.52797
18100.000 0.52804
18105.000 0.52711
18110.000 0.52505
18115.000 0.52206
18120.000 0.51853
18125.000 0.51513
18130.000 0.51260
18135.000 0.51158
18140.000 0.51234
18145.000 0.51466
18150.000 0.51791
18155.000 0.52132
18160.000 0.52415
18165.000 0.52581
18170.000 0.52587
18175.000 0.52406
18180.000 0.52029
18185.000 0.51471
18190.000 0.50794
18195.000 0.50114
18200.000 0.49592
18205.000 0.49379
18210.000 0.49530
18215.000 0.49981
18220.000 0.50583
18225.000 0.51185
18230.000 0.51677
18235.000 0.52002
18240.000 0.52135
18245.000 0.52075
18250.000 0.51829
18255.000 0.51420
18260.000 0.50885
18265.000 0.50272
18270.000 0.49703
18275.000 0.49307
18280.000 0.49139
18285.000 0.49246
18290.000 0.49582
18295.000 0.50034
18300.000 0.50478
18305.000 0.50822
18310.000 0.51012
18315.000 0.51031
18320.000 0.50887
18325.000 0.50609
18330.000 0.50243
18335.000 0.49850
18340.000 0.49502
18345.000 0.49267
18350.000 0.49187
18355.000 0.49266
18360.000 0.49453
18365.000 0.49664
18370.000 0.49803
18375.000 0.49783
18380.000 0.49553
18385.000 0.49106
18390.000 0.48509
18395.000 0.47897
18400.000 0.47453
18405.000 0.47318
18410.000 0.47533
18415.000 0.48021
18420.000 0.48641
18425.000 0.49262
18430.000 0.49786
18435.000 0.50157
18440.000 0.50336
18445.000 0.50338
18450.000 0.50138
18455.000 0.49630
18460.000 0.48888
18465.000 0.47962
18470.000 0.46916
18475.000 0.45969
18480.000 0.45414
18485.000 0.45441
18490.000 0.46037
18495.000 0.46948
18500.000 0.47889
18505.000 0.48660
18510.000 0.49179
18515.000 0.49439
18520.000 0.49458
18525.000 0.49269
18530.000 0.48907
18535.000 0.48421
18540.000 0.47875
18545.000 0.47354
18550.000 0.46955
18555.000 0.46754
18560.000 0.46780
18565.000 0.46996
18570.000 0.47310
18575.000 0.47616
18580.000 0.47824
18585.000 0.47878
18590.000 0.47767
18595.000 0.47512
18600.000 0.47168
18605.000 0.46820
18610.000 0.46553
18615.000 0.46438
18620.000 0.46505
18625.000 0.46731
18630.000 0.47066
18635.000 0.47445
18640.000 0.47782
18645.000 0.48040
18650.000 0.48187
18655.000 0.48187
18660.000 0.48017
18665.000 0.47659
18670.000 0.47094
18675.000 0.46319
18680.000 0.45372
18685.000 0.44371
18690.000 0.43538
18695.000 0.43174
18700.000 0.43464
18705.000 0.44361
18710.000 0.45544
18715.000 0.46640
18720.000 0.47385
18725.000 0.47653
18730.000 0.47413
18735.000 0.46694
18740.000 0.45601
18745.000 0.44366
18750.000 0.43343
18755.000 0.42841
18760.000 0.42987
18765.000 0.43628
18770.000 0.44507
18775.000 0.45387
18780.000 0.46130
18785.000 0.46676
18790.000 0.47009
18795.000 0.47131
18800.000 0.47046
18805.000 0.46758
18810.000 0.46281
18815.000 0.45649
18820.000 0.44900
18825.000 0.44155
18830.000 0.43636
18835.000 0.43423
18840.000 0.43546
18845.000 0.43985
18850.000 0.44591
18855.000 0.45216
18860.000 0.45747
18865.000 0.46118
18870.000 0.46298
18875.000 0.46275
18880.000 0.46042
18885.000 0.45600
18890.000 0.44967
18895.000 0.44191
18900.000 0.43380
18905.000 0.42705
18910.000 0.42344
18915.000 0.42410
18920.000 0.42862
18925.000 0.43549
18930.000 0.44278
18935.000 0.44909
18940.000 0.45367
18945.000 0.45622
18950.000 0.45673
18955.000 0.45527
18960.000 0.45195
18965.000 0.44695
18970.000 0.44064
18975.000 0.43369
18980.000 0.42719
18985.000 0.42257
18990.000 0.42102
18995.000 0.42300
19000.000 0.42781
19005.000 0.43392
19010.000 0.43973
19015.000 0.44448
19020.000 0.44678
19025.000 0.44589
19030.000 0.44287
19035.000 0.43796
19040.000 0.43157
19045.000 0.42499
19050.000 0.41976
19055.000 0.41718
19060.000 0.41793
19065.000 0.42156
19070.000 0.42695
19075.000 0.43275
19080.000 0.43789
19085.000 0.44171
19090.000 0.44384
19095.000 0.44409
19100.000 0.44238
19105.000 0.43867
19110.000 0.43303
19115.000 0.42583
19120.000 0.41790
19125.000 0.41065
19130.000 0.40590
19135.000 0.40490
19140.000 0.40788
19145.000 0.41362
19150.000 0.42047
19155.000 0.42686
19160.000 0.43185
19165.000 0.43500
19170.000 0.43619
19175.000 0.43545
19180.000 0.43286
19185.000 0.42863
19190.000 0.42308
19195.000 0.41683
19200.000 0.41084
19205.000 0.40638
19210.000 0.40408
19215.000 0.40439
19220.000 0.40787
19225.000 0.41292
19230.000 0.41781
19235.000 0.42209
19240.000 0.42522
19245.000 0.42686
19250.000 0.42698
19255.000 0.42561
19260.000 0.42289
19265.000 0.41905
19270.000 0.41448
19275.000 0.40974
19280.000 0.40555
19285.000 0.40268
19290.000 0.40160
19295.000 0.40244
19300.000 0.40479
19305.000 0.40797
19310.000 0.41121
19315.000 0.41397
19320.000 0.41587
19325.000 0.41678
19330.000 0.41670
19335.000 0.41571
19340.000 0.41400
19345.000 0.41179
19350.000 0.40934
19355.000 0.40697
19360.000 0.40495
19365.000 0.40354
19370.000 0.40285
19375.000 0.40285
19380.000 0.40340
19385.000 0.40425
19390.000 0.40513
19395.000 0.40580
19400.000 0.40610
19405.000 0.40592
19410.000 0.40530
19415.000 0.40433
19420.000 0.40306
19425.000 0.40167
19430.000 0.40038
19435.000 0.39933
19440.000 0.39859
19445.000 0.39822
19450.000 0.39817
19455.000 0.39836
19460.000 0.39868
19465.000 0.39901
19470.000 0.39927
19475.000 0.39939
19480.000 0.39935
19485.000 0.39918
19490.000 0.39889
19495.000 0.39851
19500.000 0.39810
19505.000 0.39764
19510.000 0.39713
19515.000 0.39655
19520.000 0.39583
19525.000 0.39490
19530.000 0.39371
19535.000 0.39223
19540.000 0.39047
19545.000 0.38855
19550.000 0.38664
19555.000 0.38498
19560.000 0.38384
19565.000 0.38340
19570.000 0.38374
19575.000 0.38479
19580.000 0.38632
19585.000 0.38807
19590.000 0.38976
19595.000 0.39116
19600.000 0.39208
19605.000 0.39243
19610.000 0.39215
19615.000 0.39124
19620.000 0.38985
19625.000 0.38796
19630.000 0.38571
19635.000 0.38348
19640.000 0.38149
19645.000 0.37995
19650.000 0.37903
19655.000 0.37881
19660.000 0.37921
19665.000 0.38003
19670.000 0.38105
19675.000 0.38200
19680.000 0.38269
19685.000 0.38298
19690.000 0.38279
19695.000 0.38214
19700.000 0.38109
19705.000 0.37977
19710.000 0.37835
19715.000 0.37700
19720.000 0.37589
19725.000 0.37515
19730.000 0.37483
19735.000 0.37491
19740.000 0.37529
19745.000 0.37584
19750.000 0.37640
19755.000 0.37683
19760.000 0.37700
19765.000 0.37685
19770.000 0.37636
19775.000 0.37555
19780.000 0.37448
19785.000 0.37327
19790.000 0.37206
19795.000 0.37096
19800.000 0.37011
19805.000 0.36959
19810.000 0.36941
19815.000 0.36955
19820.000 0.36990
19825.000 0.37036
19830.000 0.37084
19835.000 0.37115
19840.000 0.37117
19845.000 0.37094
19850.000 0.37043
19855.000 0.36964
19860.000 0.36866
19865.000 0.36757
19870.000 0.36648
19875.000 0.36550
19880.000 0.36472
19885.000 0.36421
19890.000 0.36397
19895.000 0.36399
19900.000 0.36420
19905.000 0.36450
19910.000 0.36481
19915.000 0.36504
19920.000 0.36514
19925.000 0.36507
19930.000 0.36485
19935.000 0.36449
19940.000 0.36404
19945.000 0.36355
19950.000 0.36308
19955.000 0.36268
19960.000 0.36237
19965.000 0.36216
19970.000 0.36201
19975.000 0.36187
19980.000 0.36167
19985.000 0.36129
19990.000 0.36062
19995.000 0.35956
20000.000 0.35800
20005.000 0.35589
20010.000 0.35324
20015.000 0.35019
20020.000 0.34702
20025.000 0.34420
20030.000 0.34223
20035.000 0.34154
20040.000 0.34237
20045.000 0.34457
20050.000 0.34693
20055.000 0.35013
20060.000 0.35723
20065.000 0.36542
20070.000 0.37079
20075.000 0.37410
20080.000 0.37598
20085.000 0.37635
20090.000 0.37545
20095.000 0.37356
20100.000 0.37089
20105.000 0.36771
20110.000 0.36431
20115.000 0.36100
20120.000 0.35811
20125.000 0.35591
20130.000 0.35456
20135.000 0.35406
20140.000 0.35428
20145.000 0.35490
20150.000 0.35562
20155.000 0.35612
20160.000 0.35624
20165.000 0.35589
20170.000 0.35509
20175.000 0.35397
20180.000 0.35270
20185.000 0.35148
20190.000 0.35054
20195.000 0.35001
20200.000 0.35005
20205.000 0.35068
20210.000 0.35185
20215.000 0.35344
20220.000 0.35527
20225.000 0.35712
20230.000 0.35880
20235.000 0.36012
20240.000 0.36095
20245.000 0.36122
20250.000 0.36086
20255.000 0.35988
20260.000 0.35837
20265.000 0.35646
20270.000 0.35418
20275.000 0.35167
20280.000 0.34923
20285.000 0.34701
20290.000 0.34513
20295.000 0.34374
20300.000 0.34292
20305.000 0.34267
20310.000 0.34297
20315.000 0.34372
20320.000 0.34479
20325.000 0.34604
20330.000 0.34731
20335.000 0.34846
20340.000 0.34935
20345.000 0.34989
20350.000 0.34999
20355.000 0.34963
20360.000 0.34882
20365.000 0.34762
20370.000 0.34615
20375.000 0.34451
20380.000 0.34288
20385.000 0.34137
20390.000 0.34014
20395.000 0.33927
20400.000 0.33881
20405.000 0.33876
20410.000 0.33908
20415.000 0.33972
20420.000 0.34056
20425.000 0.34149
20430.000 0.34238
20435.000 0.34314
20440.000 0.34365
20445.000 0.34386
20450.000 0.34374
20455.000 0.34328
20460.000 0.34255
20465.000 0.34159
20470.000 0.34050
20475.000 0.33937
20480.000 0.33827
20485.000 0.33724
20490.000 0.33632
20495.000 0.33559
20500.000 0.33503
20505.000 0.33455
20510.000 0.33411
20515.000 0.33368
20520.000 0.33318
20525.000 0.33257
20530.000 0.33182
20535.000 0.33094
20540.000 0.33000
20545.000 0.32909
20550.000 0.32832
20555.000 0.32780
20560.000 0.32762
20565.000 0.32780
20570.000 0.32835
20575.000 0.32921
20580.000 0.33030
20585.000 0.33151
20590.000 0.33273
20595.000 0.33383
20600.000 0.33468
20605.000 0.33516
20610.000 0.33516
20615.000 0.33460
20620.000 0.33345
20625.000 0.33170
20630.000 0.32941
20635.000 0.32673
20640.000 0.32383
20645.000 0.32092
20650.000 0.31824
20655.000 0.31599
20660.000 0.31434
20665.000 0.31338
20670.000 0.31313
20675.000 0.31356
20680.000 0.31455
20685.000 0.31597
20690.000 0.31766
20695.000 0.31944
20700.000 0.32116
20705.000 0.32265
20710.000 0.32383
20715.000 0.32467
20720.000 0.32512
20725.000 0.32501
20730.000 0.32450
20735.000 0.32378
20740.000 0.32292
20745.000 0.32198
20750.000 0.32106
20755.000 0.32026
20760.000 0.31961
20765.000 0.31915
20770.000 0.31887
20775.000 0.31876
20780.000 0.31878
20785.000 0.31889
20790.000 0.31903
20795.000 0.31918
20800.000 0.31926
20805.000 0.31926
20810.000 0.31923
20815.000 0.31903
20820.000 0.31835
20825.000 0.31730
20830.000 0.31616
20835.000 0.31534
20840.000 0.31494
20845.000 0.31458
20850.000 0.31412
20855.000 0.31370
20860.000 0.31334
20865.000 0.31303
20870.000 0.31278
20875.000 0.31257
20880.000 0.31243
20885.000 0.31231
20890.000 0.31223
20895.000 0.31216
20900.000 0.31207
20905.000 0.31196
20910.000 0.31179
20915.000 0.31156
20920.000 0.31123
20925.000 0.31080
20930.000 0.31026
20935.000 0.30963
20940.000 0.30891
20945.000 0.30813
20950.000 0.30733
20955.000 0.30654
20960.000 0.30587
20965.000 0.30530
20970.000 0.30487
20975.000 0.30460
20980.000 0.30451
20985.000 0.30460
20990.000 0.30482
20995.000 0.30517
21000.000 0.30557
21005.000 0.30597
21010.000 0.30632
21015.000 0.30654
21020.000 0.30655
21025.000 0.30628
21030.000 0.30566
21035.000 0.30474
21040.000 0.30364
21045.000 0.30238
21050.000 0.30100
21055.000 0.29965
21060.000 0.29850
21065.000 0.29770
21070.000 0.29728
21075.000 0.29717
21080.000 0.29739
21085.000 0.29792
21090.000 0.29871
21095.000 0.29963
21100.000 0.30059
21105.000 0.30146
21110.000 0.30211
21115.000 0.30243
21120.000 0.30237
21125.000 0.30187
21130.000 0.30099
21135.000 0.29975
21140.000 0.29829
21145.000 0.29673
21150.000 0.29522
21155.000 0.29391
21160.000 0.29292
21165.000 0.29234
21170.000 0.29223
21175.000 0.29257
21180.000 0.29334
21185.000 0.29443
21190.000 0.29574
21195.000 0.29709
21200.000 0.29826
21205.000 0.29915
21210.000 0.29967
21215.000 0.29972
21220.000 0.29926
21225.000 0.29831
21230.000 0.29698
21235.000 0.29538
21240.000 0.29366
21245.000 0.29199
21250.000 0.29051
21255.000 0.28937
21260.000 0.28864
21265.000 0.28839
21270.000 0.28859
21275.000 0.28919
21280.000 0.29011
21285.000 0.29120
21290.000 0.29232
21295.000 0.29331
21300.000 0.29405
21305.000 0.29443
21310.000 0.29436
21315.000 0.29386
21320.000 0.29293
21325.000 0.29166
21330.000 0.29016
21335.000 0.28857
21340.000 0.28705
21345.000 0.28572
21350.000 0.28471
21355.000 0.28411
21360.000 0.28395
21365.000 0.28424
21370.000 0.28493
21375.000 0.28591
21380.000 0.28710
21385.000 0.28834
21390.000 0.28950
21395.000 0.29046
21400.000 0.29110
21405.000 0.29137
21410.000 0.29120
21415.000 0.29061
21420.000 0.28964
21425.000 0.28835
21430.000 0.28684
21435.000 0.28520
21440.000 0.28358
21445.000 0.28213
21450.000 0.28091
21455.000 0.27997
21460.000 0.27935
21465.000 0.27907
21470.000 0.27913
21475.000 0.27947
21480.000 0.28000
21485.000 0.28064
21490.000 0.28133
21495.000 0.28199
21500.000 0.28256
21505.000 0.28299
21510.000 0.28325
21515.000 0.28333
21520.000 0.28322
21525.000 0.28294
21530.000 0.28250
21535.000 0.28194
21540.000 0.28130
21545.000 0.28064
21550.000 0.27997
21555.000 0.27935
21560.000 0.27881
21565.000 0.27841
21570.000 0.27801
21575.000 0.27749
21580.000 0.27751
21585.000 0.27849
21590.000 0.27960
21595.000 0.27998
21600.000 0.27934
21605.000 0.27774
21610.000 0.27567
21615.000 0.27333
21620.000 0.27062
21625.000 0.26759
21630.000 0.26446
21635.000 0.26139
21640.000 0.25855
21645.000 0.25609
21650.000 0.25415
21655.000 0.25282
21660.000 0.25218
21665.000 0.25225
21670.000 0.25302
21675.000 0.25437
21680.000 0.25620
21685.000 0.25856
21690.000 0.26121
21695.000 0.26373
21700.000 0.26587
21705.000 0.26762
21710.000 0.26909
21715.000 0.27048
21720.000 0.27176
21725.000 0.27281
21730.000 0.27356
21735.000 0.27399
21740.000 0.27403
21745.000 0.27371
21750.000 0.27302
21755.000 0.27202
21760.000 0.27080
21765.000 0.26942
21770.000 0.26800
21775.000 0.26661
21780.000 0.26537
21785.000 0.26432
21790.000 0.26353
21795.000 0.26303
21800.000 0.26282
21805.000 0.26288
21810.000 0.26316
21815.000 0.26362
21820.000 0.26417
21825.000 0.26477
21830.000 0.26533
21835.000 0.26581
21840.000 0.26614
21845.000 0.26631
21850.000 0.26629
21855.000 0.26608
21860.000 0.26570
21865.000 0.26520
21870.000 0.26464
21875.000 0.26405
21880.000 0.26348
21885.000 0.26300
21890.000 0.26261
21895.000 0.26236
21900.000 0.26227
21905.000 0.26233
21910.000 0.26252
21915.000 0.26281
21920.000 0.26316
21925.000 0.26355
21930.000 0.26389
21935.000 0.26414
21940.000 0.26445
21945.000 0.26484
21950.000 0.26489
21955.000 0.26430
21960.000 0.26333
21965.000 0.26223
21970.000 0.26101
21975.000 0.25968
21980.000 0.25829
21985.000 0.25689
21990.000 0.25552
21995.000 0.25421
22000.000 0.25299
22005.000 0.25192
22010.000 0.25101
22015.000 0.25028
22020.000 0.24976
22025.000 0.24945
22030.000 0.24936
22035.000 0.24946
22040.000 0.24968
22045.000 0.25014
22050.000 0.25103
22055.000 0.25227
22060.000 0.25368
22065.000 0.25485
22070.000 0.25543
22075.000 0.25560
22080.000 0.25565
22085.000 0.25553
22090.000 0.25515
22095.000 0.25452
22100.000 0.25371
22105.000 0.25276
22110.000 0.25173
22115.000 0.25068
22120.000 0.24970
22125.000 0.24885
22130.000 0.24819
22135.000 0.24778
22140.000 0.24765
22145.000 0.24782
22150.000 0.24827
22155.000 0.24897
22160.000 0.24988
22165.000 0.25092
22170.000 0.25201
22175.000 0.25304
22180.000 0.25393
22185.000 0.25457
22190.000 0.25490
22195.000 0.25494
22200.000 0.25464
22205.000 0.25388
22210.000 0.25271
22215.000 0.25133
22220.000 0.24986
22225.000 0.24835
22230.000 0.24686
22235.000 0.24553
22240.000 0.24444
22245.000 0.24363
22250.000 0.24315
22255.000 0.24299
22260.000 0.24314
22265.000 0.24356
22270.000 0.24416
22275.000 0.24488
22280.000 0.24560
22285.000 0.24626
22290.000 0.24675
22295.000 0.24702
22300.000 0.24701
22305.000 0.24672
22310.000 0.24615
22315.000 0.24536
22320.000 0.24440
22325.000 0.24335
22330.000 0.24231
22335.000 0.24134
22340.000 0.24053
22345.000 0.23992
22350.000 0.23954
22355.000 0.23939
22360.000 0.23946
22365.000 0.23970
22370.000 0.24005
22375.000 0.24045
22380.000 0.24081
22385.000 0.24107
22390.000 0.24116
22395.000 0.24102
22400.000 0.24064
22405.000 0.24000
22410.000 0.23916
22415.000 0.23815
22420.000 0.23705
22425.000 0.23595
22430.000 0.23494
22435.000 0.23411
22440.000 0.23353
22445.000 0.23324
22450.000 0.23329
22455.000 0.23365
22460.000 0.23432
22465.000 0.23522
22470.000 0.23629
22475.000 0.23746
22480.000 0.23864
22485.000 0.23971
22490.000 0.24057
22495.000 0.24115
22500.000 0.24140
22505.000 0.24127
22510.000 0.24077
22515.000 0.23992
22520.000 0.23876
22525.000 0.23738
22530.000 0.23588
22535.000 0.23434
22540.000 0.23286
22545.000 0.23152
22550.000 0.23039
22555.000 0.22951
22560.000 0.22889
22565.000 0.22854
22570.000 0.22843
22575.000 0.22852
22580.000 0.22876
22585.000 0.22908
22590.000 0.22945
22595.000 0.22980
22600.000 0.23010
22605.000 0.23031
22610.000 0.23042
22615.000 0.23044
22620.000 0.23038
22625.000 0.23026
22630.000 0.23013
22635.000 0.23001
22640.000 0.22996
22645.000 0.22999
22650.000 0.23014
22655.000 0.23041
22660.000 0.23079
22665.000 0.23126
22670.000 0.23178
22675.000 0.23233
22680.000 0.23284
22685.000 0.23327
22690.000 0.23357
22695.000 0.23371
22700.000 0.23366
22705.000 0.23341
22710.000 0.23297
22715.000 0.23235
22720.000 0.23157
22725.000 0.23069
22730.000 0.22977
22735.000 0.22883
22740.000 0.22790
22745.000 0.22702
22750.000 0.22628
22755.000 0.22569
22760.000 0.22523
22765.000 0.22487
22770.000 0.22462
22775.000 0.22447
22780.000 0.22438
22785.000 0.22432
22790.000 0.22427
22795.000 0.22422
22800.000 0.22413
22805.000 0.22402
22810.000 0.22387
22815.000 0.22369
22820.000 0.22350
22825.000 0.22330
22830.000 0.22310
22835.000 0.22293
22840.000 0.22278
22845.000 0.22266
22850.000 0.22260
22855.000 0.22256
22860.000 0.22254
22865.000 0.22254
22870.000 0.22252
22875.000 0.22245
22880.000 0.22234
22885.000 0.22215
22890.000 0.22188
22895.000 0.22153
22900.000 0.22108
22905.000 0.22058
22910.000 0.22003
22915.000 0.21945
22920.000 0.21890
22925.000 0.21839
22930.000 0.21797
22935.000 0.21767
22940.000 0.21751
22945.000 0.21749
22950.000 0.21763
22955.000 0.21788
22960.000 0.21825
22965.000 0.21868
22970.000 0.21912
22975.000 0.21955
22980.000 0.21989
22985.000 0.22012
22990.000 0.22021
22995.000 0.22012
23000.000 0.21986
23005.000 0.21942
23010.000 0.21884
23015.000 0.21814
23020.000 0.21737
23025.000 0.21655
23030.000 0.21578
23035.000 0.21515
23040.000 0.21469
23045.000 0.21440
23050.000 0.21432
23055.000 0.21445
23060.000 0.21480
23065.000 0.21534
23070.000 0.21599
23075.000 0.21673
23080.000 0.21747
23085.000 0.21816
23090.000 0.21874
23095.000 0.21914
23100.000 0.21931
23105.000 0.21925
23110.000 0.21893
23115.000 0.21833
23120.000 0.21749
23125.000 0.21644
23130.000 0.21522
23135.000 0.21387
23140.000 0.21248
23145.000 0.21110
23150.000 0.20981
23155.000 0.20868
23160.000 0.20777
23165.000 0.20711
23170.000 0.20672
23175.000 0.20663
23180.000 0.20680
23185.000 0.20720
23190.000 0.20777
23195.000 0.20847
23200.000 0.20921
23205.000 0.20995
23210.000 0.21062
23215.000 0.21117
23220.000 0.21158
23225.000 0.21184
23230.000 0.21192
23235.000 0.21186
23240.000 0.21165
23245.000 0.21135
23250.000 0.21096
23255.000 0.21053
23260.000 0.21009
23265.000 0.20967
23270.000 0.20929
23275.000 0.20897
23280.000 0.20871
23285.000 0.20851
23290.000 0.20837
23295.000 0.20827
23300.000 0.20818
23305.000 0.20811
23310.000 0.20803
23315.000 0.20793
23320.000 0.20778
23325.000 0.20758
23330.000 0.20732
23335.000 0.20703
23340.000 0.20672
23345.000 0.20641
23350.000 0.20610
23355.000 0.20581
23360.000 0.20557
23365.000 0.20538
23370.000 0.20525
23375.000 0.20518
23380.000 0.20516
23385.000 0.20518
23390.000 0.20522
23395.000 0.20525
23400.000 0.20525
23405.000 0.20519
23410.000 0.20504
23415.000 0.20481
23420.000 0.20448
23425.000 0.20404
23430.000 0.20351
23435.000 0.20291
23440.000 0.20226
23445.000 0.20159
23450.000 0.20094
23455.000 0.20034
23460.000 0.19983
23465.000 0.19944
23470.000 0.19918
23475.000 0.19906
23480.000 0.19908
23485.000 0.19925
23490.000 0.19951
23495.000 0.19983
23500.000 0.20018
23505.000 0.20051
23510.000 0.20076
23515.000 0.20088
23520.000 0.20086
23525.000 0.20066
23530.000 0.20028
23535.000 0.19971
23540.000 0.19898
23545.000 0.19813
23550.000 0.19721
23555.000 0.19628
23560.000 0.19539
23565.000 0.19462
23570.000 0.19401
23575.000 0.19363
23580.000 0.19350
23585.000 0.19363
23590.000 0.19404
23595.000 0.19468
23600.000 0.19554
23605.000 0.19654
23610.000 0.19766
23615.000 0.19881
23620.000 0.19987
23625.000 0.20076
23630.000 0.20146
23635.000 0.20193
23640.000 0.20213
23645.000 0.20200
23650.000 0.20155
23655.000 0.20078
23660.000 0.19971
23665.000 0.19841
23670.000 0.19693
23675.000 0.19535
23680.000 0.19374
23685.000 0.19223
23690.000 0.19089
23695.000 0.18981
23700.000 0.18905
23705.000 0.18869
23710.000 0.18872
23715.000 0.18916
23720.000 0.18996
23725.000 0.19105
23730.000 0.19236
23735.000 0.19378
23740.000 0.19521
23745.000 0.19657
23750.000 0.19776
23755.000 0.19871
23760.000 0.19937
23765.000 0.19973
23770.000 0.19978
23775.000 0.19951
23780.000 0.19896
23785.000 0.19817
23790.000 0.19721
23795.000 0.19611
23800.000 0.19497
23805.000 0.19381
23810.000 0.19272
23815.000 0.19176
23820.000 0.19097
23825.000 0.19038
23830.000 0.19002
23835.000 0.18988
23840.000 0.18996
23845.000 0.19020
23850.000 0.19059
23855.000 0.19103
23860.000 0.19147
23865.000 0.19187
23870.000 0.19214
23875.000 0.19226
23880.000 0.19219
23885.000 0.19191
23890.000 0.19144
23895.000 0.19078
23900.000 0.18996
23905.000 0.18904
23910.000 0.18805
23915.000 0.18701
23920.000 0.18599
23925.000 0.18509
23930.000 0.18436
23935.000 0.18380
23940.000 0.18342
23945.000 0.18324
23950.000 0.18330
23955.000 0.18359
23960.000 0.18409
23965.000 0.18477
23970.000 0.18558
23975.000 0.18649
23980.000 0.18743
23985.000 0.18836
23990.000 0.18921
23995.000 0.18994
24000.000 0.19051
24005.000 0.19089
24010.000 0.19106
24015.000 0.19102
24020.000 0.19076
24025.000 0.19032
24030.000 0.18972
24035.000 0.18899
24040.000 0.18817
24045.000 0.18728
24050.000 0.18640
24055.000 0.18553
24060.000 0.18472
24065.000 0.18401
24070.000 0.18342
24075.000 0.18296
24080.000 0.18265
24085.000 0.18247
24090.000 0.18245
24095.000 0.18253
24100.000 0.18271
24105.000 0.18297
24110.000 0.18328
24115.000 0.18360
24120.000 0.18392
24125.000 0.18419
24130.000 0.18441
24135.000 0.18454
24140.000 0.18458
24145.000 0.18452
24150.000 0.18434
24155.000 0.18405
24160.000 0.18365
24165.000 0.18316
24170.000 0.18259
24175.000 0.18197
24180.000 0.18132
24185.000 0.18069
24190.000 0.18008
24195.000 0.17955
24200.000 0.17912
24205.000 0.17881
24210.000 0.17864
24215.000 0.17861
24220.000 0.17874
24225.000 0.17898
24230.000 0.17934
24235.000 0.17981
24240.000 0.18037
24245.000 0.18101
24250.000 0.18166
24255.000 0.18229
24260.000 0.18289
24265.000 0.18343
24270.000 0.18388
24275.000 0.18424
24280.000 0.18446
24285.000 0.18453
24290.000 0.18443
24295.000 0.18417
24300.000 0.18371
24305.000 0.18307
24310.000 0.18224
24315.000 0.18125
24320.000 0.18011
24325.000 0.17887
24330.000 0.17756
24335.000 0.17625
24340.000 0.17501
24345.000 0.17389
24350.000 0.17295
24355.000 0.17225
24360.000 0.17182
24365.000 0.17165
24370.000 0.17177
24375.000 0.17213
24380.000 0.17270
24385.000 0.17342
24390.000 0.17425
24395.000 0.17513
24400.000 0.17601
24405.000 0.17684
24410.000 0.17759
24415.000 0.17821
24420.000 0.17866
24425.000 0.17893
24430.000 0.17900
24435.000 0.17886
24440.000 0.17850
24445.000 0.17791
24450.000 0.17712
24455.000 0.17613
24460.000 0.17498
24465.000 0.17369
24470.000 0.17232
24475.000 0.17094
24480.000 0.16959
24485.000 0.16836
24490.000 0.16729
24495.000 0.16644
24500.000 0.16585
24505.000 0.16552
24510.000 0.16547
24515.000 0.16565
24520.000 0.16605
24525.000 0.16659
24530.000 0.16725
24535.000 0.16794
24540.000 0.16864
24545.000 0.16931
24550.000 0.16995
24555.000 0.17049
24560.000 0.17089
24565.000 0.17114
24570.000 0.17127
24575.000 0.17132
24580.000 0.17129
24585.000 0.17120
24590.000 0.17103
24595.000 0.17085
24600.000 0.17066
24605.000 0.17050
24610.000 0.17038
24615.000 0.17033
24620.000 0.17036
24625.000 0.17047
24630.000 0.17067
24635.000 0.17093
24640.000 0.17127
24645.000 0.17165
24650.000 0.17203
24655.000 0.17241
24660.000 0.17273
24665.000 0.17299
24670.000 0.17314
24675.000 0.17318
24680.000 0.17308
24685.000 0.17284
24690.000 0.17245
24695.000 0.17192
24700.000 0.17127
24705.000 0.17051
24710.000 0.16969
24715.000 0.16881
24720.000 0.16792
24725.000 0.16707
24730.000 0.16627
24735.000 0.16557
24740.000 0.16499
24745.000 0.16456
24750.000 0.16428
24755.000 0.16416
24760.000 0.16418
24765.000 0.16435
24770.000 0.16462
24775.000 0.16499
24780.000 0.16540
24785.000 0.16585
24790.000 0.16628
24795.000 0.16667
24800.000 0.16698
24805.000 0.16720
24810.000 0.16730
24815.000 0.16727
24820.000 0.16709
24825.000 0.16677
24830.000 0.16631
24835.000 0.16571
24840.000 0.16499
24845.000 0.16419
24850.000 0.16331
24855.000 0.16239
24860.000 0.16145
24865.000 0.16056
24870.000 0.15972
24875.000 0.15896
24880.000 0.15827
24885.000 0.15772
24890.000 0.15737
24895.000 0.15722
24900.000 0.15722
24905.000 0.15730
24910.000 0.15748
24915.000 0.15772
24920.000 0.15803
24925.000 0.15837
24930.000 0.15870
24935.000 0.15902
24940.000 0.15930
24945.000 0.15954
24950.000 0.15975
24955.000 0.15990
24960.000 0.16003
24965.000 0.16014
24970.000 0.16023
24975.000 0.16033
24980.000 0.16046
24985.000 0.16061
24990.000 0.00000
24995.000 0.00000
25000.000 0.00000
