# Wavelength_[A] F_lambda_[norm]
1150.000 0.00000
1155.000 0.00000
1160.000 0.00000
1165.000 0.00000
1170.000 0.00000
1175.000 0.00000
1180.000 0.00000
1185.000 0.00000
1190.000 0.00000
1195.000 0.00000
1200.000 0.00000
1205.000 0.00000
1210.000 0.00000
1215.000 0.00000
1220.000 0.00000
1225.000 0.00000
1230.000 0.00000
1235.000 0.00000
1240.000 0.00000
1245.000 0.00000
1250.000 0.00000
1255.000 0.00000
1260.000 0.00000
1265.000 0.00000
1270.000 0.00000
1275.000 0.00000
1280.000 0.00000
1285.000 0.00000
1290.000 0.00000
1295.000 0.00000
1300.000 0.00000
1305.000 0.00000
1310.000 0.00000
1315.000 0.00000
1320.000 0.00000
1325.000 0.00000
1330.000 0.00000
1335.000 0.00000
1340.000 0.00000
1345.000 0.00000
1350.000 0.00000
1355.000 0.00000
1360.000 0.00000
1365.000 0.00000
1370.000 0.00000
1375.000 0.00000
1380.000 0.00000
1385.000 0.00000
1390.000 0.00000
1395.000 0.00000
1400.000 0.00000
1405.000 0.00000
1410.000 0.00000
1415.000 0.00000
1420.000 0.00000
1425.000 0.00000
1430.000 0.00000
1435.000 0.00000
1440.000 0.00000
1445.000 0.00000
1450.000 0.00000
1455.000 0.00000
1460.000 0.00000
1465.000 0.00000
1470.000 0.00000
1475.000 0.00000
1480.000 0.00000
1485.000 0.00000
1490.000 0.00000
1495.000 0.00000
1500.000 0.00000
1505.000 0.00000
1510.000 0.00000
1515.000 0.00000
1520.000 0.00000
1525.000 0.00000
1530.000 0.00000
1535.000 0.00000
1540.000 0.00000
1545.000 0.00000
1550.000 0.00000
1555.000 0.00000
1560.000 0.00000
1565.000 0.00000
1570.000 0.00000
1575.000 0.00000
1580.000 0.00000
1585.000 0.00000
1590.000 0.00000
1595.000 0.00000
1600.000 0.00000
1605.000 0.00000
1610.000 0.00000
1615.000 0.00000
1620.000 0.00000
1625.000 0.00000
1630.000 0.00000
1635.000 0.00000
1640.000 0.00000
1645.000 0.00000
1650.000 0.00000
1655.000 0.00000
1660.000 0.00000
1665.000 0.00000
1670.000 0.00000
1675.000 0.00000
1680.000 0.00000
1685.000 0.00000
1690.000 0.00000
1695.000 0.00000
1700.000 0.00000
1705.000 0.00000
1710.000 0.00000
1715.000 0.00000
1720.000 0.00000
1725.000 0.00000
1730.000 0.00000
1735.000 0.00000
1740.000 0.00000
1745.000 0.00000
1750.000 0.00000
1755.000 0.00000
1760.000 0.00000
1765.000 0.00000
1770.000 0.00000
1775.000 0.00000
1780.000 0.00000
1785.000 0.00000
1790.000 0.00000
1795.000 0.00000
1800.000 0.00000
1805.000 0.00000
1810.000 0.00000
1815.000 0.00000
1820.000 0.00000
1825.000 0.00000
1830.000 0.00000
1835.000 0.00000
1840.000 0.00000
1845.000 0.00000
1850.000 0.00000
1855.000 0.00000
1860.000 0.00000
1865.000 0.00000
1870.000 0.00000
1875.000 0.00001
1880.000 0.00001
1885.000 0.00001
1890.000 0.00000
1895.000 0.00000
1900.000 0.00000
1905.000 0.00000
1910.000 0.00000
1915.000 0.00000
1920.000 0.00000
1925.000 0.00000
1930.000 0.00000
1935.000 0.00000
1940.000 0.00000
1945.000 0.00000
1950.000 0.00000
1955.000 0.00001
1960.000 0.00002
1965.000 0.00003
1970.000 0.00003
1975.000 0.00004
1980.000 0.00004
1985.000 0.00004
1990.000 0.00003
1995.000 0.00002
2000.000 0.00000
2005.000 0.00000
2010.000 0.00000
2015.000 0.00000
2020.000 0.00000
2025.000 0.00000
2030.000 0.00000
2035.000 0.00000
2040.000 0.00000
2045.000 0.00000
2050.000 0.00000
2055.000 0.00010
2060.000 0.00022
2065.000 0.00033
2070.000 0.00044
2075.000 0.00052
2080.000 0.00055
2085.000 0.00054
2090.000 0.00045
2095.000 0.00027
2100.000 0.00000
2105.000 0.00000
2110.000 0.00000
2115.000 0.00000
2120.000 0.00000
2125.000 0.00000
2130.000 0.00000
2135.000 0.00000
2140.000 0.00000
2145.000 0.00000
2150.000 0.00000
2155.000 0.00141
2160.000 0.00318
2165.000 0.00521
2170.000 0.00743
2175.000 0.00976
2180.000 0.01213
2185.000 0.01447
2190.000 0.01668
2195.000 0.01870
2200.000 0.02045
2205.000 0.02187
2210.000 0.02298
2215.000 0.02382
2220.000 0.02443
2225.000 0.02486
2230.000 0.02513
2235.000 0.02530
2240.000 0.02540
2245.000 0.02548
2250.000 0.02556
2255.000 0.02569
2260.000 0.02588
2265.000 0.02614
2270.000 0.02648
2275.000 0.02691
2280.000 0.02743
2285.000 0.02806
2290.000 0.02880
2295.000 0.02967
2300.000 0.03067
2305.000 0.03180
2310.000 0.03303
2315.000 0.03431
2320.000 0.03560
2325.000 0.03685
2330.000 0.03801
2335.000 0.03904
2340.000 0.03989
2345.000 0.04053
2350.000 0.04089
2355.000 0.04097
2360.000 0.04081
2365.000 0.04051
2370.000 0.04013
2375.000 0.03977
2380.000 0.03949
2385.000 0.03939
2390.000 0.03953
2395.000 0.04000
2400.000 0.04089
2405.000 0.04224
2410.000 0.04395
2415.000 0.04591
2420.000 0.04800
2425.000 0.05009
2430.000 0.05205
2435.000 0.05377
2440.000 0.05512
2445.000 0.05598
2450.000 0.05622
2455.000 0.05579
2460.000 0.05477
2465.000 0.05336
2470.000 0.05170
2475.000 0.04997
2480.000 0.04834
2485.000 0.04695
2490.000 0.04599
2495.000 0.04562
2500.000 0.04600
2505.000 0.04725
2510.000 0.04927
2515.000 0.05194
2520.000 0.05510
2525.000 0.05862
2530.000 0.06236
2535.000 0.06617
2540.000 0.06992
2545.000 0.07347
2550.000 0.07667
2555.000 0.07946
2560.000 0.08204
2565.000 0.08468
2570.000 0.08765
2575.000 0.09123
2580.000 0.09570
2585.000 0.10131
2590.000 0.10834
2595.000 0.11708
2600.000 0.12779
2605.000 0.14062
2610.000 0.15522
2615.000 0.17116
2620.000 0.18796
2625.000 0.20516
2630.000 0.22231
2635.000 0.23894
2640.000 0.25459
2645.000 0.26881
2650.000 0.28113
2655.000 0.29119
2660.000 0.29899
2665.000 0.30462
2670.000 0.30819
2675.000 0.30977
2680.000 0.30948
2685.000 0.30739
2690.000 0.30361
2695.000 0.29824
2700.000 0.29135
2705.000 0.28311
2710.000 0.27380
2715.000 0.26381
2720.000 0.25348
2725.000 0.24317
2730.000 0.23323
2735.000 0.22404
2740.000 0.21594
2745.000 0.20929
2750.000 0.20446
2755.000 0.20166
2760.000 0.20065
2765.000 0.20102
2770.000 0.20238
2775.000 0.20436
2780.000 0.20654
2785.000 0.20854
2790.000 0.20998
2795.000 0.21045
2800.000 0.20957
2805.000 0.20716
2810.000 0.20392
2815.000 0.20072
2820.000 0.19848
2825.000 0.19811
2830.000 0.20048
2835.000 0.20652
2840.000 0.21711
2845.000 0.23316
2850.000 0.25557
2855.000 0.28485
2860.000 0.31996
2865.000 0.35946
2870.000 0.40193
2875.000 0.44593
2880.000 0.49004
2885.000 0.53283
2890.000 0.57286
2895.000 0.60870
2900.000 0.63893
2905.000 0.66244
2910.000 0.67943
2915.000 0.69043
2920.000 0.69597
2925.000 0.69657
2930.000 0.69277
2935.000 0.68508
2940.000 0.67405
2945.000 0.66019
2950.000 0.64404
2955.000 0.62617
2960.000 0.60728
2965.000 0.58814
2970.000 0.56953
2975.000 0.55218
2980.000 0.53687
2985.000 0.52435
2990.000 0.51538
2995.000 0.51073
3000.000 0.51114
3005.000 0.51714
3010.000 0.52820
3015.000 0.54353
3020.000 0.56236
3025.000 0.58392
3030.000 0.60743
3035.000 0.63210
3040.000 0.65717
3045.000 0.68186
3050.000 0.70538
3055.000 0.72713
3060.000 0.74714
3065.000 0.76562
3070.000 0.78276
3075.000 0.79878
3080.000 0.81386
3085.000 0.82822
3090.000 0.84205
3095.000 0.85556
3100.000 0.86895
3105.000 0.88237
3110.000 0.89581
3115.000 0.90921
3120.000 0.92251
3125.000 0.93565
3130.000 0.94856
3135.000 0.96118
3140.000 0.97346
3145.000 0.98533
3150.000 0.99674
3155.000 1.00762
3160.000 1.08563
3165.000 1.10708
3170.000 1.12877
3175.000 1.14967
3180.000 1.16262
3185.000 1.16251
3190.000 1.15848
3195.000 1.16161
3200.000 1.26407
3205.000 1.30200
3210.000 1.29784
3215.000 1.21214
3220.000 1.13266
3225.000 1.14250
3230.000 1.17875
3235.000 1.17094
3240.000 1.16414
3245.000 1.21456
3250.000 1.30711
3255.000 1.41195
3260.000 1.51129
3265.000 1.58838
3270.000 1.61846
3275.000 1.59154
3280.000 1.56472
3285.000 1.59483
3290.000 1.67036
3295.000 1.75597
3300.000 1.78912
3305.000 1.72874
3310.000 1.64688
3315.000 1.61931
3320.000 1.62345
3325.000 1.62243
3330.000 1.62039
3335.000 1.62969
3340.000 1.65448
3345.000 1.69107
3350.000 1.71285
3355.000 1.69183
3360.000 1.61772
3365.000 1.50145
3370.000 1.42122
3375.000 1.44309
3380.000 1.51718
3385.000 1.58116
3390.000 1.63883
3395.000 1.70178
3400.000 1.74659
3405.000 1.75094
3410.000 1.73180
3415.000 1.71546
3420.000 1.72616
3425.000 1.76916
3430.000 1.77591
3435.000 1.69071
3440.000 1.58301
3445.000 1.53560
3450.000 1.55948
3455.000 1.63605
3460.000 1.70018
3465.000 1.69877
3470.000 1.67359
3475.000 1.67316
3480.000 1.67824
3485.000 1.66704
3490.000 1.67550
3495.000 1.73958
3500.000 1.83742
3505.000 1.92853
3510.000 1.95562
3515.000 1.88568
3520.000 1.79964
3525.000 1.78518
3530.000 1.84309
3535.000 1.94620
3540.000 2.04236
3545.000 2.08249
3550.000 2.05475
3555.000 1.96490
3560.000 1.85181
3565.000 1.74979
3570.000 1.64183
3575.000 1.51557
3580.000 1.42859
3585.000 1.44179
3590.000 1.55938
3595.000 1.74972
3600.000 1.89438
3605.000 1.72829
3610.000 1.66281
3615.000 1.63930
3620.000 1.67851
3625.000 1.76064
3630.000 1.85404
3635.000 1.92806
3640.000 1.98060
3645.000 2.03559
3650.000 2.12182
3655.000 2.25206
3660.000 2.39811
3665.000 2.50762
3670.000 2.53564
3675.000 2.47211
3680.000 2.37728
3685.000 2.32713
3690.000 2.33843
3695.000 2.39259
3700.000 2.46250
3705.000 2.50626
3710.000 2.47759
3715.000 2.35692
3720.000 2.16776
3725.000 1.96013
3730.000 1.79362
3735.000 1.70596
3740.000 1.70222
3745.000 1.76350
3750.000 1.84040
3755.000 1.90838
3760.000 2.00614
3765.000 2.16611
3770.000 2.36719
3775.000 2.55115
3780.000 2.62907
3785.000 2.55925
3790.000 2.42149
3795.000 2.31549
3800.000 2.27081
3805.000 2.25726
3810.000 2.18752
3815.000 1.99563
3820.000 1.72217
3825.000 1.46073
3830.000 1.30513
3835.000 1.30774
3840.000 1.42190
3845.000 1.56081
3850.000 1.66505
3855.000 1.70994
3860.000 1.71710
3865.000 1.72775
3870.000 1.76078
3875.000 1.81391
3880.000 1.88776
3885.000 1.97619
3890.000 2.05587
3895.000 2.12524
3900.000 2.20970
3905.000 2.32042
3910.000 2.43096
3915.000 2.47482
3920.000 2.35791
3925.000 2.05555
3930.000 1.71550
3935.000 1.53067
3940.000 1.60089
3945.000 1.90196
3950.000 2.23082
3955.000 2.37024
3960.000 2.27908
3965.000 2.06109
3970.000 1.95115
3975.000 2.13864
3980.000 2.55352
3985.000 3.01463
3990.000 3.38212
3995.000 3.58788
4000.000 3.68422
4005.000 3.76372
4010.000 3.85133
4015.000 3.92417
4020.000 3.96251
4025.000 3.95017
4030.000 3.87233
4035.000 3.75431
4040.000 3.67815
4045.000 3.69428
4050.000 3.74851
4055.000 3.75986
4060.000 3.70203
4065.000 3.60582
4070.000 3.55439
4075.000 3.62105
4080.000 3.79381
4085.000 3.99384
4090.000 4.11088
4095.000 4.07993
4100.000 3.96279
4105.000 3.87365
4110.000 3.88037
4115.000 3.98093
4120.000 4.09130
4125.000 4.11626
4130.000 4.04958
4135.000 3.94382
4140.000 3.84390
4145.000 3.78382
4150.000 3.79176
4155.000 3.85863
4160.000 3.92318
4165.000 3.94100
4170.000 3.92405
4175.000 3.89553
4180.000 3.87165
4185.000 3.85425
4190.000 3.82735
4195.000 3.79808
4200.000 3.80805
4205.000 3.88087
4210.000 3.97741
4215.000 4.02851
4220.000 3.99462
4225.000 3.88558
4230.000 3.77205
4235.000 3.73573
4240.000 3.78088
4245.000 3.86091
4250.000 3.93834
4255.000 3.97590
4260.000 3.94655
4265.000 3.86618
4270.000 3.78180
4275.000 3.73305
4280.000 3.73414
4285.000 3.75054
4290.000 3.68127
4295.000 3.47386
4300.000 3.24632
4305.000 3.15511
4310.000 3.25501
4315.000 3.52069
4320.000 3.83044
4325.000 4.04981
4330.000 4.17070
4335.000 4.23796
4340.000 4.24798
4345.000 4.21379
4350.000 4.21733
4355.000 4.29636
4360.000 4.37903
4365.000 4.38597
4370.000 4.29574
4375.000 4.14233
4380.000 4.00913
4385.000 3.95649
4390.000 3.97031
4395.000 4.00977
4400.000 4.06013
4405.000 4.13155
4410.000 4.23835
4415.000 4.38328
4420.000 4.52995
4425.000 4.63224
4430.000 4.69244
4435.000 4.73026
4440.000 4.74166
4445.000 4.72132
4450.000 4.67706
4455.000 4.62312
4460.000 4.60650
4465.000 4.67273
4470.000 4.79705
4475.000 4.93003
4480.000 5.03513
4485.000 5.08569
4490.000 5.10652
4495.000 5.14489
4500.000 5.20983
4505.000 5.28715
4510.000 5.33851
4515.000 5.31604
4520.000 5.21795
4525.000 5.07954
4530.000 4.95918
4535.000 4.91202
4540.000 4.93763
4545.000 5.00358
4550.000 5.08469
4555.000 5.15956
4560.000 5.20989
4565.000 5.22889
4570.000 5.21607
4575.000 5.17480
4580.000 5.12347
4585.000 5.08075
4590.000 5.05336
4595.000 5.04619
4600.000 5.06760
4605.000 5.12321
4610.000 5.20052
4615.000 5.27715
4620.000 5.33341
4625.000 5.34732
4630.000 5.30077
4635.000 5.20366
4640.000 5.11012
4645.000 5.06945
4650.000 5.07230
4655.000 5.08020
4660.000 5.07255
4665.000 5.05103
4670.000 5.02808
4675.000 5.02375
4680.000 5.05207
4685.000 5.09469
4690.000 5.10423
4695.000 5.05516
4700.000 4.98249
4705.000 4.94427
4710.000 4.97012
4715.000 5.04904
4720.000 5.13612
4725.000 5.19030
4730.000 5.20479
4735.000 5.20189
4740.000 5.22135
4745.000 5.27499
4750.000 5.31220
4755.000 5.28757
4760.000 5.23362
4765.000 5.20722
4770.000 5.22689
4775.000 5.28367
4780.000 5.34403
4785.000 5.37587
4790.000 5.39135
4795.000 5.41422
4800.000 5.43614
4805.000 5.44073
4810.000 5.43346
4815.000 5.42175
4820.000 5.39594
4825.000 5.35571
4830.000 5.32476
4835.000 5.31712
4840.000 5.31739
4845.000 5.29746
4850.000 5.22567
4855.000 5.09534
4860.000 4.95853
4865.000 4.87341
4870.000 4.85831
4875.000 4.90464
4880.000 4.97055
4885.000 5.02121
4890.000 5.07711
4895.000 5.15805
4900.000 5.22784
4905.000 5.24064
4910.000 5.18457
4915.000 5.07896
4920.000 4.98598
4925.000 4.96447
4930.000 5.01015
4935.000 5.08417
4940.000 5.14536
4945.000 5.16788
4950.000 5.16156
4955.000 5.15488
4960.000 5.16928
4965.000 5.19971
4970.000 5.20314
4975.000 5.14848
4980.000 5.07036
4985.000 5.02022
4990.000 5.00652
4995.000 5.00580
5000.000 4.98011
5005.000 4.90793
5010.000 4.82348
5015.000 4.78140
5020.000 4.80629
5025.000 4.88249
5030.000 4.94865
5035.000 4.95332
5040.000 4.91782
5045.000 4.89484
5050.000 4.91356
5055.000 4.96916
5060.000 5.02351
5065.000 5.03594
5070.000 4.99748
5075.000 4.93326
5080.000 4.88822
5085.000 4.88869
5090.000 4.92064
5095.000 4.95382
5100.000 4.96308
5105.000 4.94826
5110.000 4.93661
5115.000 4.94383
5120.000 4.94862
5125.000 4.91991
5130.000 4.85949
5135.000 4.79454
5140.000 4.74476
5145.000 4.72143
5150.000 4.72294
5155.000 4.71674
5160.000 4.64276
5165.000 4.47247
5170.000 4.26899
5175.000 4.12672
5180.000 4.09452
5185.000 4.17778
5190.000 4.34156
5195.000 4.52415
5200.000 4.65295
5205.000 4.69467
5210.000 4.70249
5215.000 4.73204
5220.000 4.76448
5225.000 4.76915
5230.000 4.77124
5235.000 4.81265
5240.000 4.89531
5245.000 4.98878
5250.000 5.03347
5255.000 4.97250
5260.000 4.82131
5265.000 4.65251
5270.000 4.55610
5275.000 4.59579
5280.000 4.75050
5285.000 4.93945
5290.000 5.07266
5295.000 5.10861
5300.000 5.09888
5305.000 5.11400
5310.000 5.15566
5315.000 5.17550
5320.000 5.12551
5325.000 4.99713
5330.000 4.85767
5335.000 4.79934
5340.000 4.85197
5345.000 4.98092
5350.000 5.12014
5355.000 5.20356
5360.000 5.19645
5365.000 5.12254
5370.000 5.05873
5375.000 5.05808
5380.000 5.10341
5385.000 5.13933
5390.000 5.10772
5395.000 4.99607
5400.000 4.86859
5405.000 4.80083
5410.000 4.82400
5415.000 4.92099
5420.000 5.01966
5425.000 5.05986
5430.000 5.05674
5435.000 5.05262
5440.000 5.07257
5445.000 5.11767
5450.000 5.15464
5455.000 5.15167
5460.000 5.12718
5465.000 5.11207
5470.000 5.09893
5475.000 5.07565
5480.000 5.05932
5485.000 5.06499
5490.000 5.09011
5495.000 5.12646
5500.000 5.15072
5505.000 5.14605
5510.000 5.13332
5515.000 5.13321
5520.000 5.13306
5525.000 5.12005
5530.000 5.10286
5535.000 5.09460
5540.000 5.10941
5545.000 5.14803
5550.000 5.17776
5555.000 5.17207
5560.000 5.13887
5565.000 5.09709
5570.000 5.06386
5575.000 5.04168
5580.000 5.01417
5585.000 4.97157
5590.000 4.91981
5595.000 4.88085
5600.000 4.90037
5605.000 4.99089
5610.000 5.07949
5615.000 5.09921
5620.000 5.07069
5625.000 5.04739
5630.000 5.05730
5635.000 5.09872
5640.000 5.14876
5645.000 5.17578
5650.000 5.15505
5655.000 5.09647
5660.000 5.05141
5665.000 5.05925
5670.000 5.10575
5675.000 5.15154
5680.000 5.17035
5685.000 5.15580
5690.000 5.10963
5695.000 5.04459
5700.000 4.99196
5705.000 4.97336
5710.000 4.98311
5715.000 5.01276
5720.000 5.07194
5725.000 5.15718
5730.000 5.21027
5735.000 5.18485
5740.000 5.11744
5745.000 5.06328
5750.000 5.04045
5755.000 5.04658
5760.000 5.06559
5765.000 5.07769
5770.000 5.07535
5775.000 5.06134
5780.000 5.04473
5785.000 5.03524
5790.000 5.03744
5795.000 5.05208
5800.000 5.07605
5805.000 5.10259
5810.000 5.12336
5815.000 5.13358
5820.000 5.13671
5825.000 5.14215
5830.000 5.15678
5835.000 5.17566
5840.000 5.18330
5845.000 5.16578
5850.000 5.12506
5855.000 5.04636
5860.000 5.04860
5865.000 5.08940
5870.000 5.10685
5875.000 5.07711
5880.000 4.96624
5885.000 4.69129
5890.000 4.41948
5895.000 4.44269
5900.000 4.67191
5905.000 4.87708
5910.000 4.95394
5915.000 4.99528
5920.000 5.02293
5925.000 5.02340
5930.000 5.00887
5935.000 5.03960
5940.000 5.04975
5945.000 5.03376
5950.000 5.02318
5955.000 5.03288
5960.000 5.04801
5965.000 5.06676
5970.000 5.06551
5975.000 5.03872
5980.000 4.99671
5985.000 5.00031
5990.000 5.01773
5995.000 5.02602
6000.000 4.99273
6005.000 4.95244
6010.000 4.90841
6015.000 4.89451
6020.000 4.89097
6025.000 4.93038
6030.000 5.03964
6035.000 5.09773
6040.000 5.08814
6045.000 5.07903
6050.000 5.07767
6055.000 5.03379
6060.000 5.02658
6065.000 5.02647
6070.000 5.04859
6075.000 5.04318
6080.000 5.00536
6085.000 4.97905
6090.000 4.94829
6095.000 4.93315
6100.000 4.92384
6105.000 4.90906
6110.000 4.96925
6115.000 4.96464
6120.000 4.90899
6125.000 4.84943
6130.000 4.87542
6135.000 4.81247
6140.000 4.82419
6145.000 4.88095
6150.000 4.87181
6155.000 4.79676
6160.000 4.68537
6165.000 4.64797
6170.000 4.71428
6175.000 4.80622
6180.000 4.87153
6185.000 4.87436
6190.000 4.86114
6195.000 4.90017
6200.000 4.92292
6205.000 4.91499
6210.000 4.89174
6215.000 4.83280
6220.000 4.83131
6225.000 4.80263
6230.000 4.75897
6235.000 4.76676
6240.000 4.75497
6245.000 4.72467
6250.000 4.72493
6255.000 4.69016
6260.000 4.74007
6265.000 4.78070
6270.000 4.77762
6275.000 4.76261
6280.000 4.72877
6285.000 4.77099
6290.000 4.78558
6295.000 4.75479
6300.000 4.74711
6305.000 4.76394
6310.000 4.77663
6315.000 4.72608
6320.000 4.71915
6325.000 4.77193
6330.000 4.79264
6335.000 4.75001
6340.000 4.76041
6345.000 4.80680
6350.000 4.82468
6355.000 4.78201
6360.000 4.73620
6365.000 4.77447
6370.000 4.85103
6375.000 4.86147
6380.000 4.87734
6385.000 4.88051
6390.000 4.84680
6395.000 4.77770
6400.000 4.74018
6405.000 4.72191
6410.000 4.70758
6415.000 4.72957
6420.000 4.75017
6425.000 4.79512
6430.000 4.80538
6435.000 4.78581
6440.000 4.77891
6445.000 4.78085
6450.000 4.74096
6455.000 4.74414
6460.000 4.72267
6465.000 4.71143
6470.000 4.72699
6475.000 4.72649
6480.000 4.71811
6485.000 4.70944
6490.000 4.64695
6495.000 4.51820
6500.000 4.62128
6505.000 4.73610
6510.000 4.78337
6515.000 4.77504
6520.000 4.76376
6525.000 4.78137
6530.000 4.76276
6535.000 4.78019
6540.000 4.78723
6545.000 4.73115
6550.000 4.65406
6555.000 4.53288
6560.000 4.28337
6565.000 4.22931
6570.000 4.47161
6575.000 4.59161
6580.000 4.65738
6585.000 4.67986
6590.000 4.65927
6595.000 4.63990
6600.000 4.70077
6605.000 4.72788
6610.000 4.71919
6615.000 4.72659
6620.000 4.73411
6625.000 4.70278
6630.000 4.66218
6635.000 4.66481
6640.000 4.68693
6645.000 4.68596
6650.000 4.67790
6655.000 4.67280
6660.000 4.65396
6665.000 4.63323
6670.000 4.66020
6675.000 4.63656
6680.000 4.60392
6685.000 4.64603
6690.000 4.65847
6695.000 4.64418
6700.000 4.64077
6705.000 4.64425
6710.000 4.61270
6715.000 4.56337
6720.000 4.56101
6725.000 4.58724
6730.000 4.60019
6735.000 4.60973
6740.000 4.59977
6745.000 4.58806
6750.000 4.57270
6755.000 4.59593
6760.000 4.60537
6765.000 4.59709
6770.000 4.56970
6775.000 4.59191
6780.000 4.59681
6785.000 4.57083
6790.000 4.57831
6795.000 4.57656
6800.000 4.56609
6805.000 4.56416
6810.000 4.53804
6815.000 4.54645
6820.000 4.54621
6825.000 4.55929
6830.000 4.54359
6835.000 4.53473
6840.000 4.52623
6845.000 4.51377
6850.000 4.49692
6855.000 4.47698
6860.000 4.45638
6865.000 4.44174
6870.000 4.43867
6875.000 4.44643
6880.000 4.45916
6885.000 4.46668
6890.000 4.46429
6895.000 4.45604
6900.000 4.45372
6905.000 4.46478
6910.000 4.48546
6915.000 4.50342
6920.000 4.50480
6925.000 4.48477
6930.000 4.45623
6935.000 4.43540
6940.000 4.43113
6945.000 4.44002
6950.000 4.44802
6955.000 4.44628
6960.000 4.43548
6965.000 4.42518
6970.000 4.42879
6975.000 4.40686
6980.000 4.40907
6985.000 4.45049
6990.000 4.42846
6995.000 4.40521
7000.000 4.38144
7005.000 4.34784
7010.000 4.36476
7015.000 4.34402
7020.000 4.33674
7025.000 4.32211
7030.000 4.33354
7035.000 4.32399
7040.000 4.33611
7045.000 4.37059
7050.000 4.36241
7055.000 4.32119
7060.000 4.30356
7065.000 4.30505
7070.000 4.31573
7075.000 4.35247
7080.000 4.36229
7085.000 4.32404
7090.000 4.32277
7095.000 4.33920
7100.000 4.36105
7105.000 4.34141
7110.000 4.30018
7115.000 4.26816
7120.000 4.23127
7125.000 4.20291
7130.000 4.20850
7135.000 4.26620
7140.000 4.30504
7145.000 4.27405
7150.000 4.25642
7155.000 4.25584
7160.000 4.23897
7165.000 4.20975
7170.000 4.23822
7175.000 4.22570
7180.000 4.17282
7185.000 4.11004
7190.000 4.04777
7195.000 4.07316
7200.000 4.08834
7205.000 4.05669
7210.000 4.11746
7215.000 4.22150
7220.000 4.21269
7225.000 4.23595
7230.000 4.24335
7235.000 4.18934
7240.000 4.19155
7245.000 4.17806
7250.000 4.17218
7255.000 4.15426
7260.000 4.16773
7265.000 4.15213
7270.000 4.17261
7275.000 4.13567
7280.000 4.11445
7285.000 4.11303
7290.000 4.05327
7295.000 4.11139
7300.000 4.16582
7305.000 4.13567
7310.000 4.12825
7315.000 4.15657
7320.000 4.15297
7325.000 4.15201
7330.000 4.15754
7335.000 4.19343
7340.000 4.20380
7345.000 4.19964
7350.000 4.16439
7355.000 4.13589
7360.000 4.12524
7365.000 4.13980
7370.000 4.16972
7375.000 4.15756
7380.000 4.14036
7385.000 4.06510
7390.000 4.04284
7395.000 4.09531
7400.000 4.09247
7405.000 4.08214
7410.000 4.04125
7415.000 4.03256
7420.000 4.03793
7425.000 4.05454
7430.000 4.10348
7435.000 4.10733
7440.000 4.09176
7445.000 4.04005
7450.000 4.08614
7455.000 4.11998
7460.000 4.08724
7465.000 4.08243
7470.000 4.08869
7475.000 4.06836
7480.000 4.05727
7485.000 4.05040
7490.000 4.00995
7495.000 3.98291
7500.000 4.02400
7505.000 4.00811
7510.000 3.96532
7515.000 4.01150
7520.000 4.01574
7525.000 4.00158
7530.000 4.00992
7535.000 4.01427
7540.000 4.03026
7545.000 4.00120
7550.000 3.97758
7555.000 3.97303
7560.000 3.97898
7565.000 4.00268
7570.000 4.03313
7575.000 4.05865
7580.000 4.07116
7585.000 4.06119
7590.000 4.03636
7595.000 4.00896
7600.000 3.99089
7605.000 3.99081
7610.000 4.00200
7615.000 4.01623
7620.000 4.02535
7625.000 4.02284
7630.000 4.01047
7635.000 3.99209
7640.000 3.97155
7645.000 3.95173
7650.000 3.93166
7655.000 3.90939
7660.000 3.88297
7665.000 3.85187
7670.000 3.82131
7675.000 3.79719
7680.000 3.78730
7685.000 3.79731
7690.000 3.81995
7695.000 3.84423
7700.000 3.86288
7705.000 3.86963
7710.000 3.86715
7715.000 3.86053
7720.000 3.85397
7725.000 3.84997
7730.000 3.85010
7735.000 3.87297
7740.000 3.86178
7745.000 3.81615
7750.000 3.80861
7755.000 3.85245
7760.000 3.85790
7765.000 3.86733
7770.000 3.86019
7775.000 3.84540
7780.000 3.82528
7785.000 3.82999
7790.000 3.84021
7795.000 3.82634
7800.000 3.80672
7805.000 3.80439
7810.000 3.80574
7815.000 3.82027
7820.000 3.83133
7825.000 3.81845
7830.000 3.78212
7835.000 3.74368
7840.000 3.80398
7845.000 3.80914
7850.000 3.79172
7855.000 3.80727
7860.000 3.81673
7865.000 3.80436
7870.000 3.78355
7875.000 3.79019
7880.000 3.78113
7885.000 3.79152
7890.000 3.79957
7895.000 3.78280
7900.000 3.77737
7905.000 3.76232
7910.000 3.74212
7915.000 3.71929
7920.000 3.69742
7925.000 3.70942
7930.000 3.66737
7935.000 3.61326
7940.000 3.62953
7945.000 3.62488
7950.000 3.68216
7955.000 3.70293
7960.000 3.71371
7965.000 3.73417
7970.000 3.73140
7975.000 3.73490
7980.000 3.73491
7985.000 3.74018
7990.000 3.72366
7995.000 3.68159
8000.000 3.64855
8005.000 3.68193
8010.000 3.67938
8015.000 3.69463
8020.000 3.68206
8025.000 3.64748
8030.000 3.65746
8035.000 3.67653
8040.000 3.66526
8045.000 3.61450
8050.000 3.61627
8055.000 3.65560
8060.000 3.66836
8065.000 3.65606
8070.000 3.63341
8075.000 3.61728
8080.000 3.61637
8085.000 3.58448
8090.000 3.57245
8095.000 3.54414
8100.000 3.56522
8105.000 3.60090
8110.000 3.60979
8115.000 3.62627
8120.000 3.63575
8125.000 3.64990
8130.000 3.62906
8135.000 3.61545
8140.000 3.60178
8145.000 3.57033
8150.000 3.53560
8155.000 3.52136
8160.000 3.48659
8165.000 3.43338
8170.000 3.46098
8175.000 3.46696
8180.000 3.40012
8185.000 3.41101
8190.000 3.42601
8195.000 3.39990
8200.000 3.44913
8205.000 3.51534
8210.000 3.50649
8215.000 3.47933
8220.000 3.44017
8225.000 3.41700
8230.000 3.34133
8235.000 3.39854
8240.000 3.49154
8245.000 3.49288
8250.000 3.52050
8255.000 3.52294
8260.000 3.51852
8265.000 3.54297
8270.000 3.50384
8275.000 3.46031
8280.000 3.43813
8285.000 3.43275
8290.000 3.41017
8295.000 3.41587
8300.000 3.42161
8305.000 3.39612
8310.000 3.40204
8315.000 3.41067
8320.000 3.36767
8325.000 3.33909
8330.000 3.31135
8335.000 3.30705
8340.000 3.31320
8345.000 3.34556
8350.000 3.36202
8355.000 3.38852
8360.000 3.39272
8365.000 3.39541
8370.000 3.39173
8375.000 3.37958
8380.000 3.37109
8385.000 3.33490
8390.000 3.34448
8395.000 3.39266
8400.000 3.39789
8405.000 3.38395
8410.000 3.32813
8415.000 3.31843
8420.000 3.28616
8425.000 3.25898
8430.000 3.31219
8435.000 3.25348
8440.000 3.25363
8445.000 3.28596
8450.000 3.32413
8455.000 3.33959
8460.000 3.31700
8465.000 3.29379
8470.000 3.24470
8475.000 3.28954
8480.000 3.33167
8485.000 3.30467
8490.000 3.27042
8495.000 3.08312
8500.000 2.97124
8505.000 3.14586
8510.000 3.19087
8515.000 3.17944
8520.000 3.20106
8525.000 3.18975
8530.000 3.12887
8535.000 2.98328
8540.000 2.61571
8545.000 2.61034
8550.000 2.97044
8555.000 3.09982
8560.000 3.15786
8565.000 3.18797
8570.000 3.20427
8575.000 3.19166
8580.000 3.19460
8585.000 3.17060
8590.000 3.18782
8595.000 3.16765
8600.000 3.14945
8605.000 3.17975
8610.000 3.14057
8615.000 3.11761
8620.000 3.14052
8625.000 3.18503
8630.000 3.18110
8635.000 3.17992
8640.000 3.21709
8645.000 3.17201
8650.000 3.10047
8655.000 3.00518
8660.000 2.71504
8665.000 2.68922
8670.000 2.95254
8675.000 3.04930
8680.000 3.12822
8685.000 3.08396
8690.000 3.08399
8695.000 3.18036
8700.000 3.20505
8705.000 3.18803
8710.000 3.19889
8715.000 3.16555
8720.000 3.19971
8725.000 3.18327
8730.000 3.18290
8735.000 3.11594
8740.000 3.12689
8745.000 3.15909
8750.000 3.15970
8755.000 3.14201
8760.000 3.15268
8765.000 3.15973
8770.000 3.14345
8775.000 3.12930
8780.000 3.18654
8785.000 3.14986
8790.000 3.11137
8795.000 3.09853
8800.000 3.09701
8805.000 2.97104
8810.000 2.98220
8815.000 3.13654
8820.000 3.12590
8825.000 3.07839
8830.000 3.14161
8835.000 3.14371
8840.000 3.11945
8845.000 3.12080
8850.000 3.13453
8855.000 3.13098
8860.000 3.08452
8865.000 3.05813
8870.000 3.04008
8875.000 3.08490
8880.000 3.08818
8885.000 3.11459
8890.000 3.09833
8895.000 3.08826
8900.000 3.10704
8905.000 3.10754
8910.000 3.09928
8915.000 3.08793
8920.000 3.08706
8925.000 3.12203
8930.000 3.11227
8935.000 3.12912
8940.000 3.12539
8945.000 3.11150
8950.000 3.10284
8955.000 3.11125
8960.000 3.12270
8965.000 3.08690
8970.000 3.09192
8975.000 3.07286
8980.000 3.07688
8985.000 3.04004
8990.000 2.97608
8995.000 2.96891
9000.000 2.96270
9005.000 2.97107
9010.000 2.96362
9015.000 2.96178
9020.000 2.98414
9025.000 3.05142
9030.000 3.13536
9035.000 3.21010
9040.000 3.23682
9045.000 3.22734
9050.000 3.22898
9055.000 3.21209
9060.000 3.15804
9065.000 3.08931
9070.000 3.04527
9075.000 3.01989
9080.000 2.95285
9085.000 2.94645
9090.000 2.91122
9095.000 2.96637
9100.000 2.97970
9105.000 2.97607
9110.000 2.99017
9115.000 3.00296
9120.000 2.97890
9125.000 3.01715
9130.000 2.97038
9135.000 2.91647
9140.000 2.91949
9145.000 2.95864
9150.000 2.91710
9155.000 2.86877
9160.000 2.88009
9165.000 2.94811
9170.000 2.90851
9175.000 2.86393
9180.000 2.90662
9185.000 2.94409
9190.000 2.96619
9195.000 2.96321
9200.000 2.98491
9205.000 2.97781
9210.000 2.94631
9215.000 2.92837
9220.000 2.92978
9225.000 2.93206
9230.000 2.92796
9235.000 2.90759
9240.000 2.90241
9245.000 2.87279
9250.000 2.86673
9255.000 2.84300
9260.000 2.87752
9265.000 2.94246
9270.000 3.00426
9275.000 2.99103
9280.000 2.97415
9285.000 2.99126
9290.000 2.97693
9295.000 2.92448
9300.000 2.87349
9305.000 2.86496
9310.000 2.79413
9315.000 2.72509
9320.000 2.73448
9325.000 2.67457
9330.000 2.71316
9335.000 2.71800
9340.000 2.59349
9345.000 2.48304
9350.000 2.63778
9355.000 2.56538
9360.000 2.52824
9365.000 2.67688
9370.000 2.61801
9375.000 2.75025
9380.000 2.76922
9385.000 2.91213
9390.000 3.08220
9395.000 3.21358
9400.000 3.16760
9405.000 3.08887
9410.000 2.99568
9415.000 2.94787
9420.000 2.91772
9425.000 2.86400
9430.000 2.66588
9435.000 2.74482
9440.000 2.59596
9445.000 2.57658
9450.000 2.76465
9455.000 2.73614
9460.000 2.68867
9465.000 2.69954
9470.000 2.81460
9475.000 2.83940
9480.000 2.77431
9485.000 2.81578
9490.000 2.90816
9495.000 2.76198
9500.000 2.68209
9505.000 2.75573
9510.000 2.89463
9515.000 2.83105
9520.000 2.73462
9525.000 2.68478
9530.000 2.75219
9535.000 2.79698
9540.000 2.80643
9545.000 2.72314
9550.000 2.74110
9555.000 2.66576
9560.000 2.73915
9565.000 2.71936
9570.000 2.71804
9575.000 2.75322
9580.000 2.75049
9585.000 2.71626
9590.000 2.65292
9595.000 2.58586
9600.000 2.62303
9605.000 2.68841
9610.000 2.70522
9615.000 2.73443
9620.000 2.67607
9625.000 2.64917
9630.000 2.66835
9635.000 2.68089
9640.000 2.59223
9645.000 2.58885
9650.000 2.58489
9655.000 2.64395
9660.000 2.59689
9665.000 2.56581
9670.000 2.66584
9675.000 2.69237
9680.000 2.68402
9685.000 2.68877
9690.000 2.68424
9695.000 2.67628
9700.000 2.67857
9705.000 2.64205
9710.000 2.59062
9715.000 2.62036
9720.000 2.62775
9725.000 2.62588
9730.000 2.57903
9735.000 2.52952
9740.000 2.56291
9745.000 2.47242
9750.000 2.51265
9755.000 2.47350
9760.000 2.52029
9765.000 2.48206
9770.000 2.55673
9775.000 2.54505
9780.000 2.52915
9785.000 2.54474
9790.000 2.63032
9795.000 2.52041
9800.000 2.56756
9805.000 2.56040
9810.000 2.55323
9815.000 2.56649
9820.000 2.59606
9825.000 2.54042
9830.000 2.53366
9835.000 2.53878
9840.000 2.55799
9845.000 2.57894
9850.000 2.51220
9855.000 2.51640
9860.000 2.58006
9865.000 2.54925
9870.000 2.52202
9875.000 2.52283
9880.000 2.50187
9885.000 2.50717
9890.000 2.47888
9895.000 2.46067
9900.000 2.48351
9905.000 2.56700
9910.000 2.49758
9915.000 2.51944
9920.000 2.52418
9925.000 2.50350
9930.000 2.50685
9935.000 2.49093
9940.000 2.39940
9945.000 2.47740
9950.000 2.49386
9955.000 2.47287
9960.000 2.46621
9965.000 2.46640
9970.000 2.50000
9975.000 2.50039
9980.000 2.39640
9985.000 2.44990
9990.000 2.45330
9995.000 2.46664
10000.000 2.44794
10005.000 2.41881
10010.000 2.44642
10015.000 2.52164
10020.000 2.54847
10025.000 2.44998
10030.000 2.40747
10035.000 2.42981
10040.000 2.44566
10045.000 2.38932
10050.000 2.41341
10055.000 2.45752
10060.000 2.35482
10065.000 2.41557
10070.000 2.39494
10075.000 2.41464
10080.000 2.44274
10085.000 2.39131
10090.000 2.47171
10095.000 2.26004
10100.000 2.37193
10105.000 2.46025
10110.000 2.44922
10115.000 2.28737
10120.000 2.39956
10125.000 2.39311
10130.000 2.36489
10135.000 2.31939
10140.000 2.40351
10145.000 2.42865
10150.000 2.34383
10155.000 2.37105
10160.000 2.31429
10165.000 2.37297
10170.000 2.35857
10175.000 2.24432
10180.000 2.31277
10185.000 2.30852
10190.000 2.30645
10195.000 2.30808
10200.000 2.31491
10205.000 2.32740
10210.000 2.34196
10215.000 2.35392
10220.000 2.35866
10225.000 2.35320
10230.000 2.34128
10235.000 2.32828
10240.000 2.31963
10245.000 2.31908
10250.000 2.32388
10255.000 2.32965
10260.000 2.33200
10265.000 2.32782
10270.000 2.31917
10275.000 2.30939
10280.000 2.30183
10285.000 2.29887
10290.000 2.29923
10295.000 2.30067
10300.000 2.30097
10305.000 2.31175
10310.000 2.30861
10315.000 2.30567
10320.000 2.30386
10325.000 2.30380
10330.000 2.30478
10335.000 2.30576
10340.000 2.30571
10345.000 2.30385
10350.000 2.30037
10355.000 2.29570
10360.000 2.29028
10365.000 2.28464
10370.000 2.27953
10375.000 2.27582
10380.000 2.27433
10385.000 2.27552
10390.000 2.27819
10395.000 2.28071
10400.000 2.28149
10405.000 2.27948
10410.000 2.27596
10415.000 2.27280
10420.000 2.27185
10425.000 2.27428
10430.000 2.27847
10435.000 2.28212
10440.000 2.28292
10445.000 2.27931
10450.000 2.27258
10455.000 2.26479
10460.000 2.25795
10465.000 2.25365
10470.000 2.25160
10475.000 2.25102
10480.000 2.25116
10485.000 2.25143
10490.000 2.25188
10495.000 2.25273
10500.000 2.25422
10505.000 2.25635
10510.000 2.25828
10515.000 2.25896
10520.000 2.25732
10525.000 2.25276
10530.000 2.24647
10535.000 2.24009
10540.000 2.23525
10545.000 2.23317
10550.000 2.23341
10555.000 2.23509
10560.000 2.23736
10565.000 2.23936
10570.000 2.24020
10575.000 2.23901
10580.000 2.23492
10585.000 2.22751
10590.000 2.21822
10595.000 2.20895
10600.000 2.20161
10605.000 2.19761
10610.000 2.19648
10615.000 2.19726
10620.000 2.19900
10625.000 2.17748
10630.000 2.17525
10635.000 2.17301
10640.000 2.17077
10645.000 2.16854
10650.000 2.16631
10655.000 2.16408
10660.000 2.16186
10665.000 2.15964
10670.000 2.15742
10675.000 2.15520
10680.000 2.15298
10685.000 2.15076
10690.000 2.14855
10695.000 2.14634
10700.000 2.14413
10705.000 2.14192
10710.000 2.13972
10715.000 2.13752
10720.000 2.13532
10725.000 2.13312
10730.000 2.13092
10735.000 2.12873
10740.000 2.12653
10745.000 2.12434
10750.000 2.12215
10755.000 2.11997
10760.000 2.11779
10765.000 2.11561
10770.000 2.11343
10775.000 2.11125
10780.000 2.10907
10785.000 2.10690
10790.000 2.10472
10795.000 2.10255
10800.000 2.10039
10805.000 2.09822
10810.000 2.09606
10815.000 2.09390
10820.000 2.09174
10825.000 2.08958
10830.000 2.08743
10835.000 2.08527
10840.000 2.08312
10845.000 2.08098
10850.000 2.07883
10855.000 2.07669
10860.000 2.07454
10865.000 2.07240
10870.000 2.07026
10875.000 2.06813
10880.000 2.06600
10885.000 2.06386
10890.000 2.06173
10895.000 2.05960
10900.000 2.05748
10905.000 2.05536
10910.000 2.05323
10915.000 2.05111
10920.000 2.04900
10925.000 2.04689
10930.000 2.04477
10935.000 2.04266
10940.000 2.04055
10945.000 2.03845
10950.000 2.03634
10955.000 2.03424
10960.000 2.03214
10965.000 2.03004
10970.000 2.02794
10975.000 2.02585
10980.000 2.02376
10985.000 2.02167
10990.000 2.01959
10995.000 2.01750
11000.000 2.01541
11005.000 2.01334
11010.000 2.01126
11015.000 2.00918
11020.000 2.00711
11025.000 2.00503
11030.000 2.00297
11035.000 2.00090
11040.000 1.99883
11045.000 1.99677
11050.000 1.99470
11055.000 1.99265
11060.000 1.99059
11065.000 1.98853
11070.000 1.98648
11075.000 1.98443
11080.000 1.98238
11085.000 1.98033
11090.000 1.97829
11095.000 1.97625
11100.000 1.97420
11105.000 1.97217
11110.000 1.97013
11115.000 1.96810
11120.000 1.96607
11125.000 1.96404
11130.000 1.96201
11135.000 1.95999
11140.000 1.95796
11145.000 1.95594
11150.000 1.95392
11155.000 1.95191
11160.000 1.94989
11165.000 1.94788
11170.000 1.94587
11175.000 1.94386
11180.000 1.94186
11185.000 1.93985
11190.000 1.93785
11195.000 1.93585
11200.000 1.93386
11205.000 1.93186
11210.000 1.92987
11215.000 1.92788
11220.000 1.92589
11225.000 1.92391
11230.000 1.92192
11235.000 1.91994
11240.000 1.91796
11245.000 1.91598
11250.000 1.91401
11255.000 1.91203
11260.000 1.91006
11265.000 1.90810
11270.000 1.90613
11275.000 1.90417
11280.000 1.90221
11285.000 1.90024
11290.000 1.89829
11295.000 1.89633
11300.000 1.89438
11305.000 1.89243
11310.000 1.89048
11315.000 1.88854
11320.000 1.88659
11325.000 1.88465
11330.000 1.88271
11335.000 1.88077
11340.000 1.87883
11345.000 1.87690
11350.000 1.87497
11355.000 1.87304
11360.000 1.87111
11365.000 1.86919
11370.000 1.86727
11375.000 1.86535
11380.000 1.86343
11385.000 1.86151
11390.000 1.85960
11395.000 1.85769
11400.000 1.85578
11405.000 1.85387
11410.000 1.85197
11415.000 1.85007
11420.000 1.84817
11425.000 1.84627
11430.000 1.84438
11435.000 1.84248
11440.000 1.84059
11445.000 1.83870
11450.000 1.83681
11455.000 1.83493
11460.000 1.83305
11465.000 1.83117
11470.000 1.82929
11475.000 1.82742
11480.000 1.82554
11485.000 1.82367
11490.000 1.82180
11495.000 1.81993
11500.000 1.81807
11505.000 1.81621
11510.000 1.81435
11515.000 1.81249
11520.000 1.81064
11525.000 1.80878
11530.000 1.80693
11535.000 1.80508
11540.000 1.80324
11545.000 1.80139
11550.000 1.79955
11555.000 1.79771
11560.000 1.79588
11565.000 1.79404
11570.000 1.79221
11575.000 1.79038
11580.000 1.78855
11585.000 1.78672
11590.000 1.78490
11595.000 1.78308
11600.000 1.78126
11605.000 1.77944
11610.000 1.77763
11615.000 1.77581
11620.000 1.77400
11625.000 1.77220
11630.000 1.77039
11635.000 1.76859
11640.000 1.76679
11645.000 1.76499
11650.000 1.76319
11655.000 1.76140
11660.000 1.75960
11665.000 1.75781
11670.000 1.75603
11675.000 1.75424
11680.000 1.75246
11685.000 1.75068
11690.000 1.74890
11695.000 1.74712
11700.000 1.74535
11705.000 1.74358
11710.000 1.74181
11715.000 1.74004
11720.000 1.73828
11725.000 1.73652
11730.000 1.73476
11735.000 1.73300
11740.000 1.73124
11745.000 1.72949
11750.000 1.72774
11755.000 1.72599
11760.000 1.72424
11765.000 1.72250
11770.000 1.72076
11775.000 1.71902
11780.000 1.71728
11785.000 1.71555
11790.000 1.71382
11795.000 1.71209
11800.000 1.71036
11805.000 1.70863
11810.000 1.70691
11815.000 1.70519
11820.000 1.70347
11825.000 1.70175
11830.000 1.70004
11835.000 1.69833
11840.000 1.69662
11845.000 1.69492
11850.000 1.69321
11855.000 1.69150
11860.000 1.68981
11865.000 1.68811
11870.000 1.68641
11875.000 1.68472
11880.000 1.68303
11885.000 1.68134
11890.000 1.67965
11895.000 1.67797
11900.000 1.67629
11905.000 1.67461
11910.000 1.67294
11915.000 1.67126
11920.000 1.66959
11925.000 1.66792
11930.000 1.66625
11935.000 1.66458
11940.000 1.66292
11945.000 1.66126
11950.000 1.65961
11955.000 1.65795
11960.000 1.65630
11965.000 1.65464
11970.000 1.65300
11975.000 1.65135
11980.000 1.64971
11985.000 1.64806
11990.000 1.64643
11995.000 1.64479
12000.000 1.64315
12005.000 1.64152
12010.000 1.63989
12015.000 1.63827
12020.000 1.63664
12025.000 1.63502
12030.000 1.63339
12035.000 1.63178
12040.000 1.63016
12045.000 1.62855
12050.000 1.62694
12055.000 1.62533
12060.000 1.62372
12065.000 1.62212
12070.000 1.62051
12075.000 1.61892
12080.000 1.61732
12085.000 1.61572
12090.000 1.61413
12095.000 1.61255
12100.000 1.61096
12105.000 1.60937
12110.000 1.60779
12115.000 1.60621
12120.000 1.60463
12125.000 1.60306
12130.000 1.60149
12135.000 1.59991
12140.000 1.59834
12145.000 1.59678
12150.000 1.59522
12155.000 1.59365
12160.000 1.59209
12165.000 1.59054
12170.000 1.58899
12175.000 1.58744
12180.000 1.58588
12185.000 1.58434
12190.000 1.58279
12195.000 1.58125
12200.000 1.57971
12205.000 1.57817
12210.000 1.57664
12215.000 1.57511
12220.000 1.57358
12225.000 1.57205
12230.000 1.57053
12235.000 1.56900
12240.000 1.56748
12245.000 1.56596
12250.000 1.56445
12255.000 1.56293
12260.000 1.56142
12265.000 1.55992
12270.000 1.55841
12275.000 1.55691
12280.000 1.55541
12285.000 1.55390
12290.000 1.55241
12295.000 1.55091
12300.000 1.54942
12305.000 1.54793
12310.000 1.54644
12315.000 1.54496
12320.000 1.54348
12325.000 1.54199
12330.000 1.54052
12335.000 1.53904
12340.000 1.53757
12345.000 1.53610
12350.000 1.53463
12355.000 1.53316
12360.000 1.53170
12365.000 1.53024
12370.000 1.52878
12375.000 1.52732
12380.000 1.52586
12385.000 1.52441
12390.000 1.52296
12395.000 1.52151
12400.000 1.52007
12405.000 1.51863
12410.000 1.51718
12415.000 1.51575
12420.000 1.51431
12425.000 1.51287
12430.000 1.51144
12435.000 1.51001
12440.000 1.50858
12445.000 1.50716
12450.000 1.50574
12455.000 1.50432
12460.000 1.50290
12465.000 1.50148
12470.000 1.50007
12475.000 1.49865
12480.000 1.49725
12485.000 1.49584
12490.000 1.49443
12495.000 1.49303
12500.000 1.49163
12505.000 1.49023
12510.000 1.48884
12515.000 1.48744
12520.000 1.48605
12525.000 1.48466
12530.000 1.48328
12535.000 1.48189
12540.000 1.48051
12545.000 1.47912
12550.000 1.47775
12555.000 1.47637
12560.000 1.47500
12565.000 1.47362
12570.000 1.47226
12575.000 1.47089
12580.000 1.46952
12585.000 1.46816
12590.000 1.46680
12595.000 1.46544
12600.000 1.46408
12605.000 1.46273
12610.000 1.46138
12615.000 1.46003
12620.000 1.45868
12625.000 1.45734
12630.000 1.45599
12635.000 1.45465
12640.000 1.45331
12645.000 1.45198
12650.000 1.45064
12655.000 1.44931
12660.000 1.44798
12665.000 1.44665
12670.000 1.44532
12675.000 1.44400
12680.000 1.44267
12685.000 1.44136
12690.000 1.44004
12695.000 1.43873
12700.000 1.43741
12705.000 1.43610
12710.000 1.43479
12715.000 1.43348
12720.000 1.43218
12725.000 1.43087
12730.000 1.42957
12735.000 1.42827
12740.000 1.42698
12745.000 1.42568
12750.000 1.42439
12755.000 1.42310
12760.000 1.42181
12765.000 1.42052
12770.000 1.41924
12775.000 1.41796
12780.000 1.41668
12785.000 1.41540
12790.000 1.41413
12795.000 1.41285
12800.000 1.41158
12805.000 1.41031
12810.000 1.40904
12815.000 1.40777
12820.000 1.40651
12825.000 1.40525
12830.000 1.40399
12835.000 1.40273
12840.000 1.40148
12845.000 1.40022
12850.000 1.39898
12855.000 1.39772
12860.000 1.39648
12865.000 1.39523
12870.000 1.39399
12875.000 1.39275
12880.000 1.39151
12885.000 1.39027
12890.000 1.38904
12895.000 1.38780
12900.000 1.38657
12905.000 1.38534
12910.000 1.38411
12915.000 1.38289
12920.000 1.38166
12925.000 1.38044
12930.000 1.37923
12935.000 1.37801
12940.000 1.37679
12945.000 1.37558
12950.000 1.37437
12955.000 1.37316
12960.000 1.37195
12965.000 1.37075
12970.000 1.36954
12975.000 1.36834
12980.000 1.36714
12985.000 1.36594
12990.000 1.36475
12995.000 1.36355
13000.000 1.36236
13005.000 1.36117
13010.000 1.35999
13015.000 1.35880
13020.000 1.35761
13025.000 1.35643
13030.000 1.35525
13035.000 1.35408
13040.000 1.35289
13045.000 1.35172
13050.000 1.35055
13055.000 1.34938
13060.000 1.34821
13065.000 1.34704
13070.000 1.34588
13075.000 1.34471
13080.000 1.34355
13085.000 1.34240
13090.000 1.34124
13095.000 1.34008
13100.000 1.33893
13105.000 1.33778
13110.000 1.33663
13115.000 1.33548
13120.000 1.33433
13125.000 1.33319
13130.000 1.33205
13135.000 1.33091
13140.000 1.32976
13145.000 1.32863
13150.000 1.32749
13155.000 1.32636
13160.000 1.32523
13165.000 1.32410
13170.000 1.32297
13175.000 1.32185
13180.000 1.32073
13185.000 1.31960
13190.000 1.31848
13195.000 1.31737
13200.000 1.31625
13205.000 1.31513
13210.000 1.31402
13215.000 1.31291
13220.000 1.31180
13225.000 1.31069
13230.000 1.30959
13235.000 1.30849
13240.000 1.30738
13245.000 1.30628
13250.000 1.30518
13255.000 1.30409
13260.000 1.30299
13265.000 1.30190
13270.000 1.30081
13275.000 1.29972
13280.000 1.29863
13285.000 1.29754
13290.000 1.29646
13295.000 1.29538
13300.000 1.29430
13305.000 1.29322
13310.000 1.29214
13315.000 1.29106
13320.000 1.28999
13325.000 1.28892
13330.000 1.28785
13335.000 1.28678
13340.000 1.28572
13345.000 1.28465
13350.000 1.28359
13355.000 1.28253
13360.000 1.28147
13365.000 1.28041
13370.000 1.27936
13375.000 1.27830
13380.000 1.27725
13385.000 1.27620
13390.000 1.27515
13395.000 1.27410
13400.000 1.27305
13405.000 1.27201
13410.000 1.27097
13415.000 1.26993
13420.000 1.26889
13425.000 1.26785
13430.000 1.26681
13435.000 1.26578
13440.000 1.26475
13445.000 1.26372
13450.000 1.26269
13455.000 1.26166
13460.000 1.26064
13465.000 1.25961
13470.000 1.25859
13475.000 1.25757
13480.000 1.25655
13485.000 1.25553
13490.000 1.25452
13495.000 1.25350
13500.000 1.25249
13505.000 1.25148
13510.000 1.25047
13515.000 1.24946
13520.000 1.24846
13525.000 1.24746
13530.000 1.24645
13535.000 1.24545
13540.000 1.24446
13545.000 1.24346
13550.000 1.24246
13555.000 1.24147
13560.000 1.24047
13565.000 1.23948
13570.000 1.23849
13575.000 1.23751
13580.000 1.23652
13585.000 1.23553
13590.000 1.23455
13595.000 1.23357
13600.000 1.23259
13605.000 1.23161
13610.000 1.23064
13615.000 1.22966
13620.000 1.22869
13625.000 1.22771
13630.000 1.22675
13635.000 1.22578
13640.000 1.22481
13645.000 1.22385
13650.000 1.22288
13655.000 1.22192
13660.000 1.22096
13665.000 1.22000
13670.000 1.21904
13675.000 1.21808
13680.000 1.21713
13685.000 1.21618
13690.000 1.21522
13695.000 1.21428
13700.000 1.21333
13705.000 1.21238
13710.000 1.21143
13715.000 1.21049
13720.000 1.20955
13725.000 1.20861
13730.000 1.20767
13735.000 1.20673
13740.000 1.20579
13745.000 1.20486
13750.000 1.20393
13755.000 1.20299
13760.000 1.20207
13765.000 1.20113
13770.000 1.20020
13775.000 1.19928
13780.000 1.19835
13785.000 1.19743
13790.000 1.19651
13795.000 1.19559
13800.000 1.19467
13805.000 1.19376
13810.000 1.19284
13815.000 1.19193
13820.000 1.19101
13825.000 1.19010
13830.000 1.18920
13835.000 1.18829
13840.000 1.18738
13845.000 1.18647
13850.000 1.18557
13855.000 1.18467
13860.000 1.18377
13865.000 1.18287
13870.000 1.18197
13875.000 1.18107
13880.000 1.18018
13885.000 1.17929
13890.000 1.17839
13895.000 1.17750
13900.000 1.17661
13905.000 1.17573
13910.000 1.17484
13915.000 1.17395
13920.000 1.17307
13925.000 1.17219
13930.000 1.17131
13935.000 1.17043
13940.000 1.16955
13945.000 1.16867
13950.000 1.16780
13955.000 1.16692
13960.000 1.16605
13965.000 1.16518
13970.000 1.16431
13975.000 1.16344
13980.000 1.16257
13985.000 1.16171
13990.000 1.16085
13995.000 1.15998
14000.000 1.15912
14005.000 1.15826
14010.000 1.15740
14015.000 1.15654
14020.000 1.15568
14025.000 1.15483
14030.000 1.15398
14035.000 1.15313
14040.000 1.15227
14045.000 1.15143
14050.000 1.15058
14055.000 1.14973
14060.000 1.14889
14065.000 1.14804
14070.000 1.14720
14075.000 1.14636
14080.000 1.14552
14085.000 1.14468
14090.000 1.14384
14095.000 1.14300
14100.000 1.14217
14105.000 1.14134
14110.000 1.14050
14115.000 1.13967
14120.000 1.13884
14125.000 1.13801
14130.000 1.13719
14135.000 1.13636
14140.000 1.13554
14145.000 1.13472
14150.000 1.13389
14155.000 1.13307
14160.000 1.13225
14165.000 1.13143
14170.000 1.13061
14175.000 1.12980
14180.000 1.12899
14185.000 1.12817
14190.000 1.12736
14195.000 1.12655
14200.000 1.12574
14205.000 1.12493
14210.000 1.12413
14215.000 1.12332
14220.000 1.12251
14225.000 1.12171
14230.000 1.12091
14235.000 1.12011
14240.000 1.11931
14245.000 1.11851
14250.000 1.11771
14255.000 1.11692
14260.000 1.11612
14265.000 1.11533
14270.000 1.11454
14275.000 1.11375
14280.000 1.11295
14285.000 1.11217
14290.000 1.11138
14295.000 1.11059
14300.000 1.10981
14305.000 1.10903
14310.000 1.10824
14315.000 1.10746
14320.000 1.10668
14325.000 1.10590
14330.000 1.10512
14335.000 1.10434
14340.000 1.10357
14345.000 1.10280
14350.000 1.10202
14355.000 1.10125
14360.000 1.10048
14365.000 1.09971
14370.000 1.09894
14375.000 1.09817
14380.000 1.09740
14385.000 1.09664
14390.000 1.09587
14395.000 1.09511
14400.000 1.09435
14405.000 1.09359
14410.000 1.09283
14415.000 1.09207
14420.000 1.09132
14425.000 1.09056
14430.000 1.08980
14435.000 1.08905
14440.000 1.08829
14445.000 1.08754
14450.000 1.08679
14455.000 1.08604
14460.000 1.08529
14465.000 1.08454
14470.000 1.08380
14475.000 1.08305
14480.000 1.08231
14485.000 1.08157
14490.000 1.08082
14495.000 1.08008
14500.000 1.07934
14505.000 1.07860
14510.000 1.07787
14515.000 1.07713
14520.000 1.07639
14525.000 1.07566
14530.000 1.07492
14535.000 1.07419
14540.000 1.07346
14545.000 1.07273
14550.000 1.07200
14555.000 1.07127
14560.000 1.07054
14565.000 1.06982
14570.000 1.06909
14575.000 1.06837
14580.000 1.06764
14585.000 1.06692
14590.000 1.06620
14595.000 1.06548
14600.000 1.06476
14605.000 1.06405
14610.000 1.06333
14615.000 1.06261
14620.000 1.06190
14625.000 1.06118
14630.000 1.06047
14635.000 1.05976
14640.000 1.05905
14645.000 1.05834
14650.000 1.05763
14655.000 1.05692
14660.000 1.05621
14665.000 1.05550
14670.000 1.05480
14675.000 1.05409
14680.000 1.05339
14685.000 1.05269
14690.000 1.05199
14695.000 1.05129
14700.000 1.05059
14705.000 1.04989
14710.000 1.04919
14715.000 1.04849
14720.000 1.04780
14725.000 1.04710
14730.000 1.04641
14735.000 1.04572
14740.000 1.04503
14745.000 1.04434
14750.000 1.04364
14755.000 1.04295
14760.000 1.04227
14765.000 1.04158
14770.000 1.04090
14775.000 1.04021
14780.000 1.03952
14785.000 1.03884
14790.000 1.03816
14795.000 1.03747
14800.000 1.03679
14805.000 1.03612
14810.000 1.03544
14815.000 1.03476
14820.000 1.03408
14825.000 1.03340
14830.000 1.03273
14835.000 1.03205
14840.000 1.03138
14845.000 1.03071
14850.000 1.03003
14855.000 1.02936
14860.000 1.02869
14865.000 1.02802
14870.000 1.02735
14875.000 1.02669
14880.000 1.02602
14885.000 1.02535
14890.000 1.02469
14895.000 1.02402
14900.000 1.02336
14905.000 1.02270
14910.000 1.02203
14915.000 1.02137
14920.000 1.02071
14925.000 1.02005
14930.000 1.01939
14935.000 1.01873
14940.000 1.01808
14945.000 1.01742
14950.000 1.01677
14955.000 1.01611
14960.000 1.01546
14965.000 1.01481
14970.000 1.01415
14975.000 1.01350
14980.000 1.01285
14985.000 1.01220
14990.000 1.01155
14995.000 1.01090
15000.000 1.01026
15005.000 1.00961
15010.000 1.00897
15015.000 1.00832
15020.000 1.00767
15025.000 1.00703
15030.000 1.00639
15035.000 1.00575
15040.000 1.00510
15045.000 1.00447
15050.000 1.00383
15055.000 1.00319
15060.000 1.00255
15065.000 1.00191
15070.000 1.00127
15075.000 1.00064
15080.000 1.00000
15085.000 0.99937
15090.000 0.99873
15095.000 0.99810
15100.000 0.99747
15105.000 0.99684
15110.000 0.99620
15115.000 0.99557
15120.000 0.99495
15125.000 0.99432
15130.000 0.99369
15135.000 0.99306
15140.000 0.99243
15145.000 0.99181
15150.000 0.99119
15155.000 0.99056
15160.000 0.98993
15165.000 0.98931
15170.000 0.98869
15175.000 0.98807
15180.000 0.98744
15185.000 0.98683
15190.000 0.98621
15195.000 0.98558
15200.000 0.98497
15205.000 0.98435
15210.000 0.98373
15215.000 0.98312
15220.000 0.98250
15225.000 0.98188
15230.000 0.98127
15235.000 0.98066
15240.000 0.98004
15245.000 0.97943
15250.000 0.97882
15255.000 0.97820
15260.000 0.97760
15265.000 0.97699
15270.000 0.97637
15275.000 0.97577
15280.000 0.97516
15285.000 0.97455
15290.000 0.97395
15295.000 0.97334
15300.000 0.97273
15305.000 0.97213
15310.000 0.97152
15315.000 0.97092
15320.000 0.97031
15325.000 0.96971
15330.000 0.96911
15335.000 0.96851
15340.000 0.96790
15345.000 0.96731
15350.000 0.96671
15355.000 0.96610
15360.000 0.96551
15365.000 0.96491
15370.000 0.96431
15375.000 0.96372
15380.000 0.96312
15385.000 0.96252
15390.000 0.96193
15395.000 0.96133
15400.000 0.96074
15405.000 0.96014
15410.000 0.95955
15415.000 0.95896
15420.000 0.95836
15425.000 0.95778
15430.000 0.95718
15435.000 0.95659
15440.000 0.95600
15445.000 0.95541
15450.000 0.95483
15455.000 0.95423
15460.000 0.95365
15465.000 0.95306
15470.000 0.95247
15475.000 0.95189
15480.000 0.95130
15485.000 0.95072
15490.000 0.95013
15495.000 0.94954
15500.000 0.94896
15505.000 0.94838
15510.000 0.94780
15515.000 0.94721
15520.000 0.94663
15525.000 0.94605
15530.000 0.94547
15535.000 0.94489
15540.000 0.94431
15545.000 0.94373
15550.000 0.94315
15555.000 0.94257
15560.000 0.94199
15565.000 0.94141
15570.000 0.94084
15575.000 0.94026
15580.000 0.93969
15585.000 0.93911
15590.000 0.93853
15595.000 0.93796
15600.000 0.93738
15605.000 0.93681
15610.000 0.93623
15615.000 0.93566
15620.000 0.93509
15625.000 0.93452
15630.000 0.93394
15635.000 0.93337
15640.000 0.93280
15645.000 0.93223
15650.000 0.93166
15655.000 0.93109
15660.000 0.93052
15665.000 0.92995
15670.000 0.92938
15675.000 0.92881
15680.000 0.92825
15685.000 0.92768
15690.000 0.92711
15695.000 0.92654
15700.000 0.92597
15705.000 0.92541
15710.000 0.92484
15715.000 0.92428
15720.000 0.92371
15725.000 0.92315
15730.000 0.92258
15735.000 0.92202
15740.000 0.92145
15745.000 0.88753
15750.000 0.87956
15755.000 0.90441
15760.000 0.91541
15765.000 0.86763
15770.000 0.84578
15775.000 0.90269
15780.000 0.92545
15785.000 0.93169
15790.000 0.91894
15795.000 0.91916
15800.000 0.92519
15805.000 0.92417
15810.000 0.92535
15815.000 0.91906
15820.000 0.90098
15825.000 0.90765
15830.000 0.92200
15835.000 0.90418
15840.000 0.91428
15845.000 0.93122
15850.000 0.92705
15855.000 0.92230
15860.000 0.91152
15865.000 0.90323
15870.000 0.91036
15875.000 0.90673
15880.000 0.89472
15885.000 0.86097
15890.000 0.83698
15895.000 0.85584
15900.000 0.88592
15905.000 0.88985
15910.000 0.88808
15915.000 0.90019
15920.000 0.89940
15925.000 0.90597
15930.000 0.91427
15935.000 0.91167
15940.000 0.90516
15945.000 0.90346
15950.000 0.90310
15955.000 0.88966
15960.000 0.86435
15965.000 0.87013
15970.000 0.89131
15975.000 0.90074
15980.000 0.89103
15985.000 0.89265
15990.000 0.91083
15995.000 0.90475
16000.000 0.90011
16005.000 0.89178
16010.000 0.87586
16015.000 0.88880
16020.000 0.90090
16025.000 0.90310
16030.000 0.90711
16035.000 0.89835
16040.000 0.88852
16045.000 0.89085
16050.000 0.90190
16055.000 0.90346
16060.000 0.88277
16065.000 0.88468
16070.000 0.89127
16075.000 0.87976
16080.000 0.88483
16085.000 0.88932
16090.000 0.88745
16095.000 0.86172
16100.000 0.86009
16105.000 0.87168
16110.000 0.88147
16115.000 0.88480
16120.000 0.88467
16125.000 0.88862
16130.000 0.88445
16135.000 0.88829
16140.000 0.88731
16145.000 0.88747
16150.000 0.88147
16155.000 0.87190
16160.000 0.86637
16165.000 0.86097
16170.000 0.85996
16175.000 0.86827
16180.000 0.85851
16185.000 0.86143
16190.000 0.87020
16195.000 0.85632
16200.000 0.84926
16205.000 0.85700
16210.000 0.85278
16215.000 0.85214
16220.000 0.85954
16225.000 0.86276
16230.000 0.86104
16235.000 0.86202
16240.000 0.85760
16245.000 0.86222
16250.000 0.87341
16255.000 0.87405
16260.000 0.87738
16265.000 0.87368
16270.000 0.87533
16275.000 0.87776
16280.000 0.87776
16285.000 0.87071
16290.000 0.86805
16295.000 0.87068
16300.000 0.86843
16305.000 0.87269
16310.000 0.87303
16315.000 0.85489
16320.000 0.84972
16325.000 0.86152
16330.000 0.86513
16335.000 0.86417
16340.000 0.86833
16345.000 0.86708
16350.000 0.86576
16355.000 0.86623
16360.000 0.85970
16365.000 0.84986
16370.000 0.85638
16375.000 0.85620
16380.000 0.84138
16385.000 0.83972
16390.000 0.85008
16395.000 0.84954
16400.000 0.84900
16405.000 0.84846
16410.000 0.84791
16415.000 0.84737
16420.000 0.84683
16425.000 0.84629
16430.000 0.84574
16435.000 0.84520
16440.000 0.84466
16445.000 0.84412
16450.000 0.84357
16455.000 0.84303
16460.000 0.84249
16465.000 0.84195
16470.000 0.84141
16475.000 0.84086
16480.000 0.84032
16485.000 0.83978
16490.000 0.83924
16495.000 0.83870
16500.000 0.83816
16505.000 0.83761
16510.000 0.83707
16515.000 0.83653
16520.000 0.83599
16525.000 0.83544
16530.000 0.83490
16535.000 0.83436
16540.000 0.83382
16545.000 0.83328
16550.000 0.83274
16555.000 0.83220
16560.000 0.83165
16565.000 0.83111
16570.000 0.83057
16575.000 0.83003
16580.000 0.82949
16585.000 0.82895
16590.000 0.82840
16595.000 0.82786
16600.000 0.82732
16605.000 0.82678
16610.000 0.82624
16615.000 0.82570
16620.000 0.82515
16625.000 0.82461
16630.000 0.82407
16635.000 0.82353
16640.000 0.82299
16645.000 0.82245
16650.000 0.82191
16655.000 0.82137
16660.000 0.82083
16665.000 0.82028
16670.000 0.81974
16675.000 0.81920
16680.000 0.81866
16685.000 0.81812
16690.000 0.81758
16695.000 0.81704
16700.000 0.81650
16705.000 0.81595
16710.000 0.81542
16715.000 0.81488
16720.000 0.81433
16725.000 0.81380
16730.000 0.81325
16735.000 0.81271
16740.000 0.81217
16745.000 0.81163
16750.000 0.81109
16755.000 0.81055
16760.000 0.81001
16765.000 0.80947
16770.000 0.80893
16775.000 0.80839
16780.000 0.80785
16785.000 0.80731
16790.000 0.80677
16795.000 0.80623
16800.000 0.80569
16805.000 0.80515
16810.000 0.80461
16815.000 0.80407
16820.000 0.80353
16825.000 0.80299
16830.000 0.80245
16835.000 0.80191
16840.000 0.80137
16845.000 0.80083
16850.000 0.80029
16855.000 0.79975
16860.000 0.79921
16865.000 0.79867
16870.000 0.79813
16875.000 0.79759
16880.000 0.79705
16885.000 0.79651
16890.000 0.79597
16895.000 0.79543
16900.000 0.79489
16905.000 0.79435
16910.000 0.79381
16915.000 0.79328
16920.000 0.79273
16925.000 0.79220
16930.000 0.79166
16935.000 0.79112
16940.000 0.79058
16945.000 0.79004
16950.000 0.78950
16955.000 0.78896
16960.000 0.78843
16965.000 0.78788
16970.000 0.78735
16975.000 0.78681
16980.000 0.78627
16985.000 0.78573
16990.000 0.78519
16995.000 0.78465
17000.000 0.78412
17005.000 0.78358
17010.000 0.78304
17015.000 0.78250
17020.000 0.78196
17025.000 0.78143
17030.000 0.78089
17035.000 0.78035
17040.000 0.77981
17045.000 0.77927
17050.000 0.77873
17055.000 0.77820
17060.000 0.77766
17065.000 0.77712
17070.000 0.77658
17075.000 0.77605
17080.000 0.77551
17085.000 0.77497
17090.000 0.77444
17095.000 0.77389
17100.000 0.77336
17105.000 0.77282
17110.000 0.77228
17115.000 0.77174
17120.000 0.77121
17125.000 0.77067
17130.000 0.77014
17135.000 0.76960
17140.000 0.76906
17145.000 0.76853
17150.000 0.76799
17155.000 0.76745
17160.000 0.76691
17165.000 0.76638
17170.000 0.76584
17175.000 0.76531
17180.000 0.76477
17185.000 0.76423
17190.000 0.76369
17195.000 0.76316
17200.000 0.76262
17205.000 0.76209
17210.000 0.76155
17215.000 0.76101
17220.000 0.76048
17225.000 0.75994
17230.000 0.75941
17235.000 0.75887
17240.000 0.75834
17245.000 0.75780
17250.000 0.75726
17255.000 0.75673
17260.000 0.75619
17265.000 0.75566
17270.000 0.75512
17275.000 0.75459
17280.000 0.75405
17285.000 0.75352
17290.000 0.75298
17295.000 0.75245
17300.000 0.75191
17305.000 0.75138
17310.000 0.75084
17315.000 0.75031
17320.000 0.74977
17325.000 0.74924
17330.000 0.74870
17335.000 0.74817
17340.000 0.74763
17345.000 0.74710
17350.000 0.74656
17355.000 0.74603
17360.000 0.74550
17365.000 0.74496
17370.000 0.74443
17375.000 0.74389
17380.000 0.74336
17385.000 0.74283
17390.000 0.74229
17395.000 0.74176
17400.000 0.74122
17405.000 0.74069
17410.000 0.74016
17415.000 0.73962
17420.000 0.73909
17425.000 0.73856
17430.000 0.73803
17435.000 0.73749
17440.000 0.73696
17445.000 0.73642
17450.000 0.73589
17455.000 0.73536
17460.000 0.73483
17465.000 0.73430
17470.000 0.73376
17475.000 0.73323
17480.000 0.73269
17485.000 0.73216
17490.000 0.73163
17495.000 0.73110
17500.000 0.73056
17505.000 0.73003
17510.000 0.72950
17515.000 0.72897
17520.000 0.72844
17525.000 0.72791
17530.000 0.72738
17535.000 0.72684
17540.000 0.72631
17545.000 0.72578
17550.000 0.72525
17555.000 0.72472
17560.000 0.72419
17565.000 0.72366
17570.000 0.72312
17575.000 0.72259
17580.000 0.72206
17585.000 0.72153
17590.000 0.72100
17595.000 0.72047
17600.000 0.71994
17605.000 0.71941
17610.000 0.71888
17615.000 0.71835
17620.000 0.71782
17625.000 0.71728
17630.000 0.71676
17635.000 0.71622
17640.000 0.71570
17645.000 0.71517
17650.000 0.71464
17655.000 0.71411
17660.000 0.71358
17665.000 0.71305
17670.000 0.71252
17675.000 0.71199
17680.000 0.71146
17685.000 0.71093
17690.000 0.71040
17695.000 0.70987
17700.000 0.70934
17705.000 0.70881
17710.000 0.70829
17715.000 0.70775
17720.000 0.70723
17725.000 0.70670
17730.000 0.70617
17735.000 0.70564
17740.000 0.70511
17745.000 0.70459
17750.000 0.70406
17755.000 0.70353
17760.000 0.70300
17765.000 0.70247
17770.000 0.70195
17775.000 0.70142
17780.000 0.70089
17785.000 0.70036
17790.000 0.69984
17795.000 0.69931
17800.000 0.69878
17805.000 0.69826
17810.000 0.69773
17815.000 0.69720
17820.000 0.69667
17825.000 0.69615
17830.000 0.69562
17835.000 0.69509
17840.000 0.69457
17845.000 0.69404
17850.000 0.69352
17855.000 0.69299
17860.000 0.69246
17865.000 0.69193
17870.000 0.69141
17875.000 0.69089
17880.000 0.69036
17885.000 0.68983
17890.000 0.68931
17895.000 0.68878
17900.000 0.68825
17905.000 0.68773
17910.000 0.68721
17915.000 0.68668
17920.000 0.68616
17925.000 0.68563
17930.000 0.68511
17935.000 0.68459
17940.000 0.68406
17945.000 0.68354
17950.000 0.68301
17955.000 0.68249
17960.000 0.68196
17965.000 0.68144
17970.000 0.68092
17975.000 0.68039
17980.000 0.67987
17985.000 0.67934
17990.000 0.67882
17995.000 0.67829
18000.000 0.67777
18005.000 0.67725
18010.000 0.67672
18015.000 0.67620
18020.000 0.67568
18025.000 0.67516
18030.000 0.67463
18035.000 0.67411
18040.000 0.67359
18045.000 0.67307
18050.000 0.67254
18055.000 0.67202
18060.000 0.67150
18065.000 0.67098
18070.000 0.67046
18075.000 0.66994
18080.000 0.66941
18085.000 0.66889
18090.000 0.66837
18095.000 0.66785
18100.000 0.66733
18105.000 0.66680
18110.000 0.66629
18115.000 0.66576
18120.000 0.66524
18125.000 0.66472
18130.000 0.66420
18135.000 0.66368
18140.000 0.66316
18145.000 0.66264
18150.000 0.66212
18155.000 0.66160
18160.000 0.66108
18165.000 0.66056
18170.000 0.66004
18175.000 0.65952
18180.000 0.65900
18185.000 0.65848
18190.000 0.65796
18195.000 0.65744
18200.000 0.65692
18205.000 0.65641
18210.000 0.65589
18215.000 0.65537
18220.000 0.65485
18225.000 0.65433
18230.000 0.65381
18235.000 0.65330
18240.000 0.65278
18245.000 0.65226
18250.000 0.65174
18255.000 0.65122
18260.000 0.65070
18265.000 0.65019
18270.000 0.64967
18275.000 0.64915
18280.000 0.64864
18285.000 0.64812
18290.000 0.64760
18295.000 0.64709
18300.000 0.64657
18305.000 0.64605
18310.000 0.64553
18315.000 0.64502
18320.000 0.64450
18325.000 0.64399
18330.000 0.64347
18335.000 0.64295
18340.000 0.64244
18345.000 0.64192
18350.000 0.64141
18355.000 0.64089
18360.000 0.64037
18365.000 0.63986
18370.000 0.63935
18375.000 0.63883
18380.000 0.63832
18385.000 0.63780
18390.000 0.63729
18395.000 0.63677
18400.000 0.63626
18405.000 0.63575
18410.000 0.63523
18415.000 0.63472
18420.000 0.63420
18425.000 0.63369
18430.000 0.63318
18435.000 0.63266
18440.000 0.63215
18445.000 0.63164
18450.000 0.63112
18455.000 0.63061
18460.000 0.63009
18465.000 0.62958
18470.000 0.62907
18475.000 0.62856
18480.000 0.62805
18485.000 0.62754
18490.000 0.62702
18495.000 0.62651
18500.000 0.62600
18505.000 0.62549
18510.000 0.62498
18515.000 0.62446
18520.000 0.62395
18525.000 0.62344
18530.000 0.62293
18535.000 0.62242
18540.000 0.62191
18545.000 0.62140
18550.000 0.62089
18555.000 0.62038
18560.000 0.61987
18565.000 0.61936
18570.000 0.61885
18575.000 0.61834
18580.000 0.61783
18585.000 0.61732
18590.000 0.61681
18595.000 0.61630
18600.000 0.61579
18605.000 0.61528
18610.000 0.61477
18615.000 0.61426
18620.000 0.61375
18625.000 0.61325
18630.000 0.61274
18635.000 0.61223
18640.000 0.61172
18645.000 0.61121
18650.000 0.61071
18655.000 0.61020
18660.000 0.60969
18665.000 0.60918
18670.000 0.60867
18675.000 0.60817
18680.000 0.60766
18685.000 0.60715
18690.000 0.60665
18695.000 0.60614
18700.000 0.60563
18705.000 0.60513
18710.000 0.60462
18715.000 0.60412
18720.000 0.60361
18725.000 0.60310
18730.000 0.60260
18735.000 0.60209
18740.000 0.60159
18745.000 0.60108
18750.000 0.60058
18755.000 0.60007
18760.000 0.59957
18765.000 0.59906
18770.000 0.59856
18775.000 0.59805
18780.000 0.59755
18785.000 0.59705
18790.000 0.59654
18795.000 0.59604
18800.000 0.59554
18805.000 0.59503
18810.000 0.59453
18815.000 0.59402
18820.000 0.59352
18825.000 0.59302
18830.000 0.59252
18835.000 0.59201
18840.000 0.59151
18845.000 0.59101
18850.000 0.59051
18855.000 0.59001
18860.000 0.58950
18865.000 0.58900
18870.000 0.58850
18875.000 0.58800
18880.000 0.58750
18885.000 0.58699
18890.000 0.58650
18895.000 0.58600
18900.000 0.58549
18905.000 0.58499
18910.000 0.58450
18915.000 0.58399
18920.000 0.58349
18925.000 0.58299
18930.000 0.58249
18935.000 0.58199
18940.000 0.58149
18945.000 0.58099
18950.000 0.58050
18955.000 0.58000
18960.000 0.57950
18965.000 0.57900
18970.000 0.57850
18975.000 0.57800
18980.000 0.57751
18985.000 0.57701
18990.000 0.57651
18995.000 0.57601
19000.000 0.57551
19005.000 0.57502
19010.000 0.57452
19015.000 0.57402
19020.000 0.57353
19025.000 0.57303
19030.000 0.57253
19035.000 0.57204
19040.000 0.57154
19045.000 0.57104
19050.000 0.57055
19055.000 0.57005
19060.000 0.56955
19065.000 0.56906
19070.000 0.56856
19075.000 0.56807
19080.000 0.56757
19085.000 0.56708
19090.000 0.56658
19095.000 0.56609
19100.000 0.56559
19105.000 0.56510
19110.000 0.56461
19115.000 0.56411
19120.000 0.56362
19125.000 0.56313
19130.000 0.56263
19135.000 0.56214
19140.000 0.56164
19145.000 0.56115
19150.000 0.56066
19155.000 0.56016
19160.000 0.55967
19165.000 0.55918
19170.000 0.55869
19175.000 0.55820
19180.000 0.55771
19185.000 0.55721
19190.000 0.55672
19195.000 0.55623
19200.000 0.55574
19205.000 0.55525
19210.000 0.55476
19215.000 0.55426
19220.000 0.55378
19225.000 0.55329
19230.000 0.55279
19235.000 0.55230
19240.000 0.55182
19245.000 0.55132
19250.000 0.55084
19255.000 0.55035
19260.000 0.54986
19265.000 0.54937
19270.000 0.54888
19275.000 0.54839
19280.000 0.54790
19285.000 0.54742
19290.000 0.54692
19295.000 0.54644
19300.000 0.54595
19305.000 0.54547
19310.000 0.54497
19315.000 0.54449
19320.000 0.54400
19325.000 0.54351
19330.000 0.54303
19335.000 0.54254
19340.000 0.54205
19345.000 0.54157
19350.000 0.54108
19355.000 0.54059
19360.000 0.54011
19365.000 0.53963
19370.000 0.53914
19375.000 0.53865
19380.000 0.53817
19385.000 0.53768
19390.000 0.53720
19395.000 0.53672
19400.000 0.53623
19405.000 0.53575
19410.000 0.53526
19415.000 0.53478
19420.000 0.53429
19425.000 0.53381
19430.000 0.53333
19435.000 0.53284
19440.000 0.53236
19445.000 0.53188
19450.000 0.53140
19455.000 0.53091
19460.000 0.53043
19465.000 0.52995
19470.000 0.52947
19475.000 0.52899
19480.000 0.52850
19485.000 0.52802
19490.000 0.52754
19495.000 0.52706
19500.000 0.52658
19505.000 0.52610
19510.000 0.52562
19515.000 0.52514
19520.000 0.52466
19525.000 0.52418
19530.000 0.52370
19535.000 0.52322
19540.000 0.52274
19545.000 0.52226
19550.000 0.52178
19555.000 0.52131
19560.000 0.52083
19565.000 0.52035
19570.000 0.51987
19575.000 0.51939
19580.000 0.51891
19585.000 0.51844
19590.000 0.51796
19595.000 0.51748
19600.000 0.51700
19605.000 0.51653
19610.000 0.51605
19615.000 0.51557
19620.000 0.51510
19625.000 0.51462
19630.000 0.51414
19635.000 0.51367
19640.000 0.51320
19645.000 0.51272
19650.000 0.51224
19655.000 0.51177
19660.000 0.51130
19665.000 0.51082
19670.000 0.51035
19675.000 0.50987
19680.000 0.50940
19685.000 0.50892
19690.000 0.50845
19695.000 0.50798
19700.000 0.50750
19705.000 0.50703
19710.000 0.50656
19715.000 0.50609
19720.000 0.50561
19725.000 0.50514
19730.000 0.50467
19735.000 0.50419
19740.000 0.50372
19745.000 0.50325
19750.000 0.50278
19755.000 0.50231
19760.000 0.50184
19765.000 0.50137
19770.000 0.50090
19775.000 0.50043
19780.000 0.49996
19785.000 0.49949
19790.000 0.49902
19795.000 0.49855
19800.000 0.49808
19805.000 0.49761
19810.000 0.49714
19815.000 0.49667
19820.000 0.49621
19825.000 0.49573
19830.000 0.49527
19835.000 0.49480
19840.000 0.49433
19845.000 0.49386
19850.000 0.49340
19855.000 0.49293
19860.000 0.49247
19865.000 0.49199
19870.000 0.49153
19875.000 0.49106
19880.000 0.49059
19885.000 0.49013
19890.000 0.48967
19895.000 0.48920
19900.000 0.48873
19905.000 0.48827
19910.000 0.48780
19915.000 0.48734
19920.000 0.48687
19925.000 0.48641
19930.000 0.48595
19935.000 0.48548
19940.000 0.48502
19945.000 0.48456
19950.000 0.48409
19955.000 0.48363
19960.000 0.48316
19965.000 0.48270
19970.000 0.48224
19975.000 0.48178
19980.000 0.48132
19985.000 0.48085
19990.000 0.48039
19995.000 0.47993
20000.000 0.47947
20005.000 0.47901
20010.000 0.47855
20015.000 0.47809
20020.000 0.47763
20025.000 0.47717
20030.000 0.47671
20035.000 0.47625
20040.000 0.47579
20045.000 0.47533
20050.000 0.47487
20055.000 0.47441
20060.000 0.47395
20065.000 0.47349
20070.000 0.47304
20075.000 0.47257
20080.000 0.47212
20085.000 0.47166
20090.000 0.47121
20095.000 0.47075
20100.000 0.47029
20105.000 0.46983
20110.000 0.46938
20115.000 0.46892
20120.000 0.46846
20125.000 0.46801
20130.000 0.46755
20135.000 0.46710
20140.000 0.46664
20145.000 0.46619
20150.000 0.46573
20155.000 0.46528
20160.000 0.46482
20165.000 0.46437
20170.000 0.46391
20175.000 0.46346
20180.000 0.46300
20185.000 0.46255
20190.000 0.46210
20195.000 0.46165
20200.000 0.46120
20205.000 0.46074
20210.000 0.46029
20215.000 0.45984
20220.000 0.45939
20225.000 0.45893
20230.000 0.45848
20235.000 0.45803
20240.000 0.45758
20245.000 0.45713
20250.000 0.45668
20255.000 0.45623
20260.000 0.45578
20265.000 0.45533
20270.000 0.45488
20275.000 0.45443
20280.000 0.45398
20285.000 0.45354
20290.000 0.45309
20295.000 0.45264
20300.000 0.45219
20305.000 0.45174
20310.000 0.45129
20315.000 0.45084
20320.000 0.45040
20325.000 0.44995
20330.000 0.44950
20335.000 0.44906
20340.000 0.44861
20345.000 0.44816
20350.000 0.44772
20355.000 0.44727
20360.000 0.44683
20365.000 0.44638
20370.000 0.44594
20375.000 0.44549
20380.000 0.44505
20385.000 0.44460
20390.000 0.44416
20395.000 0.44371
20400.000 0.44327
20405.000 0.44283
20410.000 0.44238
20415.000 0.44194
20420.000 0.44150
20425.000 0.44106
20430.000 0.44062
20435.000 0.44017
20440.000 0.43973
20445.000 0.43929
20450.000 0.43885
20455.000 0.43841
20460.000 0.43796
20465.000 0.43752
20470.000 0.43708
20475.000 0.43664
20480.000 0.43621
20485.000 0.43576
20490.000 0.43532
20495.000 0.43488
20500.000 0.43445
20505.000 0.43401
20510.000 0.43357
20515.000 0.43313
20520.000 0.43269
20525.000 0.43225
20530.000 0.43182
20535.000 0.43138
20540.000 0.43094
20545.000 0.43050
20550.000 0.43007
20555.000 0.42963
20560.000 0.42920
20565.000 0.42876
20570.000 0.42832
20575.000 0.42789
20580.000 0.42745
20585.000 0.42702
20590.000 0.42659
20595.000 0.42615
20600.000 0.42571
20605.000 0.42528
20610.000 0.42485
20615.000 0.42442
20620.000 0.42398
20625.000 0.42355
20630.000 0.42311
20635.000 0.42268
20640.000 0.42225
20645.000 0.42182
20650.000 0.42138
20655.000 0.42095
20660.000 0.42052
20665.000 0.42009
20670.000 0.41966
20675.000 0.41923
20680.000 0.41880
20685.000 0.41837
20690.000 0.41794
20695.000 0.41751
20700.000 0.41708
20705.000 0.41665
20710.000 0.41622
20715.000 0.41579
20720.000 0.41536
20725.000 0.41494
20730.000 0.41451
20735.000 0.41408
20740.000 0.41365
20745.000 0.41323
20750.000 0.41280
20755.000 0.41237
20760.000 0.41195
20765.000 0.41152
20770.000 0.41109
20775.000 0.41067
20780.000 0.41024
20785.000 0.40982
20790.000 0.40939
20795.000 0.40897
20800.000 0.40855
20805.000 0.40812
20810.000 0.40769
20815.000 0.40727
20820.000 0.40685
20825.000 0.40643
20830.000 0.40600
20835.000 0.40558
20840.000 0.40516
20845.000 0.40473
20850.000 0.40431
20855.000 0.40389
20860.000 0.40347
20865.000 0.40305
20870.000 0.40263
20875.000 0.40221
20880.000 0.40179
20885.000 0.40137
20890.000 0.40095
20895.000 0.40053
20900.000 0.40011
20905.000 0.39969
20910.000 0.39927
20915.000 0.39885
20920.000 0.39843
20925.000 0.39802
20930.000 0.39760
20935.000 0.39718
20940.000 0.39676
20945.000 0.39634
20950.000 0.39593
20955.000 0.39551
20960.000 0.39510
20965.000 0.39468
20970.000 0.39427
20975.000 0.39385
20980.000 0.39343
20985.000 0.39302
20990.000 0.39260
20995.000 0.39219
21000.000 0.39177
21005.000 0.39136
21010.000 0.39095
21015.000 0.39054
21020.000 0.39012
21025.000 0.38971
21030.000 0.38929
21035.000 0.38888
21040.000 0.38847
21045.000 0.38806
21050.000 0.38765
21055.000 0.38724
21060.000 0.38683
21065.000 0.38641
21070.000 0.38600
21075.000 0.38559
21080.000 0.38518
21085.000 0.38477
21090.000 0.38437
21095.000 0.38396
21100.000 0.38355
21105.000 0.38314
21110.000 0.38273
21115.000 0.38232
21120.000 0.38191
21125.000 0.38151
21130.000 0.38110
21135.000 0.38069
21140.000 0.38029
21145.000 0.37988
21150.000 0.37947
21155.000 0.37906
21160.000 0.37866
21165.000 0.37825
21170.000 0.37785
21175.000 0.37744
21180.000 0.37704
21185.000 0.37664
21190.000 0.37623
21195.000 0.37583
21200.000 0.37543
21205.000 0.37502
21210.000 0.37462
21215.000 0.37421
21220.000 0.37381
21225.000 0.37341
21230.000 0.37301
21235.000 0.37261
21240.000 0.37221
21245.000 0.37181
21250.000 0.37141
21255.000 0.37101
21260.000 0.37060
21265.000 0.37020
21270.000 0.36980
21275.000 0.36940
21280.000 0.36901
21285.000 0.36861
21290.000 0.36821
21295.000 0.36781
21300.000 0.36741
21305.000 0.36702
21310.000 0.36662
21315.000 0.36622
21320.000 0.36582
21325.000 0.36542
21330.000 0.36503
21335.000 0.36463
21340.000 0.36424
21345.000 0.36384
21350.000 0.36345
21355.000 0.36305
21360.000 0.36266
21365.000 0.36226
21370.000 0.36187
21375.000 0.36148
21380.000 0.36108
21385.000 0.36069
21390.000 0.36029
21395.000 0.35990
21400.000 0.35951
21405.000 0.35912
21410.000 0.35873
21415.000 0.35833
21420.000 0.35794
21425.000 0.35755
21430.000 0.35716
21435.000 0.35677
21440.000 0.35638
21445.000 0.35599
21450.000 0.35560
21455.000 0.35521
21460.000 0.35483
21465.000 0.35443
21470.000 0.35404
21475.000 0.35366
21480.000 0.35327
21485.000 0.35288
21490.000 0.35249
21495.000 0.35211
21500.000 0.35172
21505.000 0.35134
21510.000 0.35095
21515.000 0.35056
21520.000 0.35018
21525.000 0.34979
21530.000 0.34941
21535.000 0.34902
21540.000 0.34864
21545.000 0.34826
21550.000 0.34787
21555.000 0.34749
21560.000 0.34711
21565.000 0.34672
21570.000 0.34634
21575.000 0.34595
21580.000 0.34557
21585.000 0.34519
21590.000 0.34481
21595.000 0.34443
21600.000 0.34405
21605.000 0.34367
21610.000 0.34329
21615.000 0.34291
21620.000 0.34253
21625.000 0.34215
21630.000 0.34177
21635.000 0.34139
21640.000 0.34101
21645.000 0.34064
21650.000 0.34026
21655.000 0.33988
21660.000 0.33950
21665.000 0.33913
21670.000 0.33875
21675.000 0.33837
21680.000 0.33800
21685.000 0.33762
21690.000 0.33725
21695.000 0.33687
21700.000 0.33650
21705.000 0.33612
21710.000 0.33575
21715.000 0.33537
21720.000 0.33500
21725.000 0.33463
21730.000 0.33425
21735.000 0.33388
21740.000 0.33351
21745.000 0.33314
21750.000 0.33276
21755.000 0.33239
21760.000 0.33202
21765.000 0.33165
21770.000 0.33128
21775.000 0.33091
21780.000 0.33054
21785.000 0.33017
21790.000 0.32980
21795.000 0.32943
21800.000 0.32906
21805.000 0.32869
21810.000 0.32832
21815.000 0.32796
21820.000 0.32759
21825.000 0.32722
21830.000 0.32685
21835.000 0.32649
21840.000 0.32612
21845.000 0.32576
21850.000 0.32539
21855.000 0.32502
21860.000 0.32466
21865.000 0.32429
21870.000 0.32393
21875.000 0.32356
21880.000 0.32320
21885.000 0.32284
21890.000 0.32247
21895.000 0.32211
21900.000 0.32175
21905.000 0.32138
21910.000 0.32102
21915.000 0.32066
21920.000 0.32030
21925.000 0.31994
21930.000 0.31958
21935.000 0.31922
21940.000 0.31886
21945.000 0.31850
21950.000 0.31814
21955.000 0.31778
21960.000 0.31742
21965.000 0.31706
21970.000 0.31670
21975.000 0.31634
21980.000 0.31598
21985.000 0.31563
21990.000 0.31527
21995.000 0.31491
22000.000 0.31455
22005.000 0.31420
22010.000 0.31384
22015.000 0.31349
22020.000 0.31313
22025.000 0.31277
22030.000 0.31242
22035.000 0.31207
22040.000 0.31171
22045.000 0.31136
22050.000 0.31101
22055.000 0.31065
22060.000 0.31030
22065.000 0.30995
22070.000 0.30960
22075.000 0.30924
22080.000 0.30889
22085.000 0.30854
22090.000 0.30819
22095.000 0.30784
22100.000 0.30749
22105.000 0.30714
22110.000 0.30679
22115.000 0.30644
22120.000 0.30609
22125.000 0.30574
22130.000 0.30539
22135.000 0.30504
22140.000 0.30469
22145.000 0.30434
22150.000 0.30400
22155.000 0.30365
22160.000 0.30331
22165.000 0.30296
22170.000 0.30261
22175.000 0.30227
22180.000 0.30192
22185.000 0.30157
22190.000 0.30123
22195.000 0.30088
22200.000 0.30054
22205.000 0.30020
22210.000 0.29985
22215.000 0.29951
22220.000 0.29916
22225.000 0.29882
22230.000 0.29848
22235.000 0.29814
22240.000 0.29780
22245.000 0.29745
22250.000 0.29711
22255.000 0.29677
22260.000 0.29643
22265.000 0.29609
22270.000 0.29575
22275.000 0.29541
22280.000 0.29507
22285.000 0.29473
22290.000 0.29439
22295.000 0.29405
22300.000 0.29372
22305.000 0.29338
22310.000 0.29304
22315.000 0.29270
22320.000 0.29236
22325.000 0.29203
22330.000 0.29169
22335.000 0.29135
22340.000 0.29102
22345.000 0.29068
22350.000 0.29034
22355.000 0.29001
22360.000 0.28968
22365.000 0.28934
22370.000 0.28901
22375.000 0.28867
22380.000 0.28834
22385.000 0.28800
22390.000 0.28767
22395.000 0.28734
22400.000 0.28700
22405.000 0.28667
22410.000 0.28634
22415.000 0.28601
22420.000 0.28568
22425.000 0.28535
22430.000 0.28502
22435.000 0.28469
22440.000 0.28436
22445.000 0.28403
22450.000 0.28370
22455.000 0.28337
22460.000 0.28304
22465.000 0.28271
22470.000 0.28238
22475.000 0.28205
22480.000 0.28173
22485.000 0.28140
22490.000 0.28107
22495.000 0.28074
22500.000 0.28042
22505.000 0.28009
22510.000 0.27977
22515.000 0.27944
22520.000 0.27911
22525.000 0.27879
22530.000 0.27846
22535.000 0.27814
22540.000 0.27781
22545.000 0.27749
22550.000 0.27717
22555.000 0.27685
22560.000 0.27652
22565.000 0.27620
22570.000 0.27588
22575.000 0.27555
22580.000 0.27523
22585.000 0.27491
22590.000 0.27459
22595.000 0.27427
22600.000 0.27395
22605.000 0.27363
22610.000 0.27331
22615.000 0.27299
22620.000 0.27266
22625.000 0.27234
22630.000 0.27203
22635.000 0.27171
22640.000 0.27139
22645.000 0.27107
22650.000 0.27075
22655.000 0.27044
22660.000 0.27012
22665.000 0.26981
22670.000 0.26949
22675.000 0.26917
22680.000 0.26885
22685.000 0.26854
22690.000 0.26822
22695.000 0.26791
22700.000 0.26759
22705.000 0.26728
22710.000 0.26696
22715.000 0.26665
22720.000 0.26633
22725.000 0.26602
22730.000 0.26571
22735.000 0.26540
22740.000 0.26508
22745.000 0.26477
22750.000 0.26446
22755.000 0.26415
22760.000 0.26383
22765.000 0.26352
22770.000 0.26321
22775.000 0.26290
22780.000 0.26259
22785.000 0.26228
22790.000 0.26197
22795.000 0.26166
22800.000 0.26135
22805.000 0.26105
22810.000 0.26074
22815.000 0.26043
22820.000 0.26012
22825.000 0.25981
22830.000 0.25951
22835.000 0.25920
22840.000 0.25889
22845.000 0.25858
22850.000 0.25828
22855.000 0.25797
22860.000 0.25767
22865.000 0.25736
22870.000 0.25705
22875.000 0.25675
22880.000 0.25644
22885.000 0.25614
22890.000 0.25584
22895.000 0.25553
22900.000 0.25523
22905.000 0.25492
22910.000 0.25462
22915.000 0.25432
22920.000 0.25402
22925.000 0.25372
22930.000 0.25341
22935.000 0.25311
22940.000 0.25281
22945.000 0.25251
22950.000 0.25221
22955.000 0.25191
22960.000 0.25161
22965.000 0.25131
22970.000 0.25101
22975.000 0.25071
22980.000 0.25041
22985.000 0.25011
22990.000 0.24981
22995.000 0.24951
23000.000 0.24922
23005.000 0.24892
23010.000 0.24862
23015.000 0.24832
23020.000 0.24803
23025.000 0.24773
23030.000 0.24744
23035.000 0.24714
23040.000 0.24684
23045.000 0.24655
23050.000 0.24626
23055.000 0.24596
23060.000 0.24566
23065.000 0.24537
23070.000 0.24507
23075.000 0.24478
23080.000 0.24449
23085.000 0.24420
23090.000 0.24390
23095.000 0.24361
23100.000 0.24332
23105.000 0.24303
23110.000 0.24273
23115.000 0.24244
23120.000 0.24215
23125.000 0.24186
23130.000 0.24157
23135.000 0.24128
23140.000 0.24099
23145.000 0.24070
23150.000 0.24041
23155.000 0.24012
23160.000 0.23983
23165.000 0.23954
23170.000 0.23926
23175.000 0.23897
23180.000 0.23868
23185.000 0.23839
23190.000 0.23810
23195.000 0.23782
23200.000 0.23753
23205.000 0.23724
23210.000 0.23696
23215.000 0.23668
23220.000 0.23639
23225.000 0.23610
23230.000 0.23582
23235.000 0.23553
23240.000 0.23525
23245.000 0.23496
23250.000 0.23468
23255.000 0.23439
23260.000 0.23411
23265.000 0.23383
23270.000 0.23355
23275.000 0.23326
23280.000 0.23298
23285.000 0.23270
23290.000 0.23242
23295.000 0.23214
23300.000 0.23185
23305.000 0.23158
23310.000 0.23129
23315.000 0.23101
23320.000 0.23073
23325.000 0.23046
23330.000 0.23017
23335.000 0.22989
23340.000 0.22961
23345.000 0.22934
23350.000 0.22906
23355.000 0.22878
23360.000 0.22850
23365.000 0.22823
23370.000 0.22795
23375.000 0.22767
23380.000 0.22739
23385.000 0.22712
23390.000 0.22684
23395.000 0.22656
23400.000 0.22629
23405.000 0.22602
23410.000 0.22574
23415.000 0.22546
23420.000 0.22519
23425.000 0.22492
23430.000 0.22464
23435.000 0.22437
23440.000 0.22409
23445.000 0.22382
23450.000 0.22355
23455.000 0.22327
23460.000 0.22300
23465.000 0.22273
23470.000 0.22246
23475.000 0.22218
23480.000 0.22191
23485.000 0.22164
23490.000 0.22137
23495.000 0.22110
23500.000 0.22083
23505.000 0.22056
23510.000 0.22029
23515.000 0.22002
23520.000 0.21975
23525.000 0.21948
23530.000 0.21921
23535.000 0.21894
23540.000 0.21868
23545.000 0.21841
23550.000 0.21814
23555.000 0.21787
23560.000 0.21761
23565.000 0.21734
23570.000 0.21707
23575.000 0.21681
23580.000 0.21654
23585.000 0.21628
23590.000 0.21601
23595.000 0.21575
23600.000 0.21548
23605.000 0.21521
23610.000 0.21495
23615.000 0.21469
23620.000 0.21442
23625.000 0.21416
23630.000 0.21390
23635.000 0.21363
23640.000 0.21337
23645.000 0.21311
23650.000 0.21285
23655.000 0.21258
23660.000 0.21232
23665.000 0.21206
23670.000 0.21180
23675.000 0.21154
23680.000 0.21128
23685.000 0.21102
23690.000 0.21076
23695.000 0.21049
23700.000 0.21024
23705.000 0.20998
23710.000 0.20972
23715.000 0.20946
23720.000 0.20920
23725.000 0.20894
23730.000 0.20868
23735.000 0.20843
23740.000 0.20817
23745.000 0.20791
23750.000 0.20766
23755.000 0.20740
23760.000 0.20714
23765.000 0.20689
23770.000 0.20663
23775.000 0.20637
23780.000 0.20612
23785.000 0.20586
23790.000 0.20561
23795.000 0.20535
23800.000 0.20510
23805.000 0.20484
23810.000 0.20459
23815.000 0.20434
23820.000 0.20408
23825.000 0.20383
23830.000 0.20358
23835.000 0.20333
23840.000 0.20307
23845.000 0.20282
23850.000 0.20257
23855.000 0.20232
23860.000 0.20207
23865.000 0.20182
23870.000 0.20156
23875.000 0.20131
23880.000 0.20107
23885.000 0.20081
23890.000 0.20056
23895.000 0.20032
23900.000 0.20007
23905.000 0.19982
23910.000 0.19957
23915.000 0.19932
23920.000 0.19907
23925.000 0.19883
23930.000 0.19858
23935.000 0.19833
23940.000 0.19808
23945.000 0.19783
23950.000 0.19759
23955.000 0.19734
23960.000 0.19710
23965.000 0.19685
23970.000 0.19661
23975.000 0.19636
23980.000 0.19611
23985.000 0.19587
23990.000 0.19562
23995.000 0.19538
24000.000 0.19514
24005.000 0.19489
24010.000 0.19465
24015.000 0.19441
24020.000 0.19416
24025.000 0.19392
24030.000 0.19368
24035.000 0.19344
24040.000 0.19319
24045.000 0.19295
24050.000 0.19271
24055.000 0.19247
24060.000 0.19223
24065.000 0.19199
24070.000 0.19175
24075.000 0.19151
24080.000 0.19127
24085.000 0.19103
24090.000 0.19079
24095.000 0.19055
24100.000 0.19031
24105.000 0.19007
24110.000 0.18983
24115.000 0.18960
24120.000 0.18936
24125.000 0.18912
24130.000 0.18888
24135.000 0.18864
24140.000 0.18841
24145.000 0.18817
24150.000 0.18793
24155.000 0.18770
24160.000 0.18746
24165.000 0.18723
24170.000 0.18699
24175.000 0.18676
24180.000 0.18652
24185.000 0.18629
24190.000 0.18605
24195.000 0.18582
24200.000 0.18559
24205.000 0.18535
24210.000 0.18512
24215.000 0.18489
24220.000 0.18465
24225.000 0.18442
24230.000 0.18419
24235.000 0.18395
24240.000 0.18373
24245.000 0.18349
24250.000 0.18326
24255.000 0.18303
24260.000 0.18280
24265.000 0.18257
24270.000 0.18234
24275.000 0.18211
24280.000 0.18188
24285.000 0.18165
24290.000 0.18142
24295.000 0.18119
24300.000 0.18096
24305.000 0.18074
24310.000 0.18051
24315.000 0.18028
24320.000 0.18005
24325.000 0.17982
24330.000 0.17959
24335.000 0.17937
24340.000 0.17914
24345.000 0.17892
24350.000 0.17869
24355.000 0.17846
24360.000 0.17824
24365.000 0.17801
24370.000 0.17779
24375.000 0.17756
24380.000 0.17733
24385.000 0.17711
24390.000 0.17689
24395.000 0.17666
24400.000 0.17644
24405.000 0.17621
24410.000 0.17599
24415.000 0.17577
24420.000 0.17554
24425.000 0.17532
24430.000 0.17510
24435.000 0.17488
24440.000 0.17466
24445.000 0.17443
24450.000 0.17421
24455.000 0.17399
24460.000 0.17377
24465.000 0.17355
24470.000 0.17333
24475.000 0.17311
24480.000 0.17289
24485.000 0.17267
24490.000 0.17245
24495.000 0.17223
24500.000 0.17201
24505.000 0.17179
24510.000 0.17158
24515.000 0.17136
24520.000 0.17114
24525.000 0.17092
24530.000 0.17070
24535.000 0.17049
24540.000 0.17027
24545.000 0.17006
24550.000 0.16984
24555.000 0.16962
24560.000 0.16941
24565.000 0.16919
24570.000 0.16898
24575.000 0.16876
24580.000 0.16854
24585.000 0.16833
24590.000 0.16811
24595.000 0.16790
24600.000 0.16769
24605.000 0.16747
24610.000 0.16726
24615.000 0.16704
24620.000 0.16683
24625.000 0.16662
24630.000 0.16641
24635.000 0.16619
24640.000 0.16598
24645.000 0.16577
24650.000 0.16556
24655.000 0.16535
24660.000 0.16513
24665.000 0.16493
24670.000 0.16471
24675.000 0.16450
24680.000 0.16429
24685.000 0.16408
24690.000 0.16388
24695.000 0.16366
24700.000 0.16346
24705.000 0.16325
24710.000 0.16304
24715.000 0.16283
24720.000 0.16262
24725.000 0.16241
24730.000 0.16220
24735.000 0.16200
24740.000 0.16179
24745.000 0.16159
24750.000 0.16138
24755.000 0.16117
24760.000 0.16096
24765.000 0.16076
24770.000 0.16055
24775.000 0.16034
24780.000 0.16014
24785.000 0.15993
24790.000 0.15973
24795.000 0.15953
24800.000 0.15932
24805.000 0.15912
24810.000 0.15891
24815.000 0.15871
24820.000 0.15850
24825.000 0.15830
24830.000 0.15810
24835.000 0.15790
24840.000 0.15769
24845.000 0.15749
24850.000 0.15729
24855.000 0.15709
24860.000 0.15689
24865.000 0.15668
24870.000 0.15649
24875.000 0.15628
24880.000 0.15608
24885.000 0.15588
24890.000 0.15568
24895.000 0.15548
24900.000 0.15528
24905.000 0.15508
24910.000 0.15488
24915.000 0.15469
24920.000 0.15448
24925.000 0.15429
24930.000 0.15409
24935.000 0.15389
24940.000 0.15369
24945.000 0.15350
24950.000 0.15330
24955.000 0.15310
24960.000 0.15290
24965.000 0.15270
24970.000 0.15251
24975.000 0.15231
24980.000 0.15212
24985.000 0.15192
24990.000 0.15173
24995.000 0.15153
25000.000 0.00000
