# Wavelength_[A] F_lambda_[norm]
1150.000 0.00000
1155.000 0.00000
1160.000 0.00000
1165.000 0.00000
1170.000 0.00000
1175.000 0.00000
1180.000 0.00000
1185.000 0.00000
1190.000 0.00000
1195.000 0.00000
1200.000 0.00000
1205.000 0.00000
1210.000 0.00000
1215.000 0.00000
1220.000 0.00000
1225.000 0.00000
1230.000 0.00000
1235.000 0.00000
1240.000 0.00000
1245.000 0.00000
1250.000 0.00000
1255.000 0.00000
1260.000 0.00000
1265.000 0.00000
1270.000 0.00000
1275.000 0.00000
1280.000 0.00000
1285.000 0.00000
1290.000 0.00000
1295.000 0.00000
1300.000 0.00000
1305.000 0.00000
1310.000 0.00000
1315.000 0.00000
1320.000 0.00000
1325.000 0.00000
1330.000 0.00000
1335.000 0.00000
1340.000 0.00000
1345.000 0.00000
1350.000 0.00000
1355.000 0.00000
1360.000 0.00000
1365.000 0.00000
1370.000 0.00000
1375.000 0.00000
1380.000 0.00000
1385.000 0.00000
1390.000 0.00000
1395.000 0.00000
1400.000 0.00000
1405.000 0.00000
1410.000 0.00000
1415.000 0.00000
1420.000 0.00000
1425.000 0.00000
1430.000 0.00000
1435.000 0.00000
1440.000 0.00000
1445.000 0.00000
1450.000 0.00000
1455.000 0.00000
1460.000 0.00000
1465.000 0.00000
1470.000 0.00000
1475.000 0.00000
1480.000 0.00000
1485.000 0.00000
1490.000 0.00000
1495.000 0.00000
1500.000 0.00000
1505.000 0.00000
1510.000 0.00000
1515.000 0.00000
1520.000 0.00000
1525.000 0.00000
1530.000 0.00000
1535.000 0.00000
1540.000 0.00000
1545.000 0.00000
1550.000 0.00000
1555.000 0.00000
1560.000 0.00000
1565.000 0.00000
1570.000 0.00000
1575.000 0.00000
1580.000 0.00000
1585.000 0.00000
1590.000 0.00000
1595.000 0.00000
1600.000 0.00000
1605.000 0.00000
1610.000 0.00000
1615.000 0.00000
1620.000 0.00000
1625.000 0.00000
1630.000 0.00000
1635.000 0.00000
1640.000 0.00000
1645.000 0.00000
1650.000 0.00000
1655.000 0.00000
1660.000 0.00000
1665.000 0.00000
1670.000 0.00000
1675.000 0.00000
1680.000 0.00000
1685.000 0.00000
1690.000 0.00000
1695.000 0.00000
1700.000 0.00000
1705.000 0.00000
1710.000 0.00000
1715.000 0.00000
1720.000 0.00000
1725.000 0.00000
1730.000 0.00000
1735.000 0.00000
1740.000 0.00000
1745.000 0.00000
1750.000 0.00000
1755.000 0.00000
1760.000 0.00000
1765.000 0.00000
1770.000 0.00000
1775.000 0.00000
1780.000 0.00000
1785.000 0.00000
1790.000 0.00000
1795.000 0.00000
1800.000 0.00000
1805.000 0.00000
1810.000 0.00000
1815.000 0.00000
1820.000 0.00000
1825.000 0.00000
1830.000 0.00000
1835.000 0.00000
1840.000 0.00000
1845.000 0.00000
1850.000 0.00000
1855.000 0.00000
1860.000 0.00000
1865.000 0.00000
1870.000 0.00000
1875.000 0.00000
1880.000 0.00000
1885.000 0.00000
1890.000 0.00000
1895.000 0.00000
1900.000 0.00000
1905.000 0.00000
1910.000 0.00000
1915.000 0.00000
1920.000 0.00000
1925.000 0.00000
1930.000 0.00000
1935.000 0.00000
1940.000 0.00000
1945.000 0.00000
1950.000 0.00000
1955.000 0.00000
1960.000 0.00000
1965.000 0.00000
1970.000 0.00000
1975.000 0.00000
1980.000 0.00000
1985.000 0.00000
1990.000 0.00000
1995.000 0.00000
2000.000 0.00000
2005.000 0.00000
2010.000 0.00000
2015.000 0.00000
2020.000 0.00000
2025.000 0.00000
2030.000 0.00000
2035.000 0.00000
2040.000 0.00000
2045.000 0.00000
2050.000 0.00000
2055.000 0.00000
2060.000 0.00000
2065.000 0.00000
2070.000 0.00000
2075.000 0.00000
2080.000 0.00000
2085.000 0.00000
2090.000 0.00000
2095.000 0.00000
2100.000 0.00000
2105.000 0.00000
2110.000 0.00000
2115.000 0.00000
2120.000 0.00000
2125.000 0.00000
2130.000 0.00000
2135.000 0.00000
2140.000 0.00000
2145.000 0.00000
2150.000 0.00000
2155.000 0.00000
2160.000 0.00000
2165.000 0.00000
2170.000 0.00000
2175.000 0.00000
2180.000 0.00000
2185.000 0.00000
2190.000 0.00000
2195.000 0.00000
2200.000 0.00000
2205.000 0.00000
2210.000 0.00000
2215.000 0.00000
2220.000 0.00000
2225.000 0.00000
2230.000 0.00000
2235.000 0.00000
2240.000 0.00000
2245.000 0.00000
2250.000 0.00000
2255.000 0.00000
2260.000 0.00000
2265.000 0.00000
2270.000 0.00000
2275.000 0.00000
2280.000 0.00000
2285.000 0.00000
2290.000 0.00000
2295.000 0.00000
2300.000 0.00000
2305.000 0.00000
2310.000 0.00000
2315.000 0.00000
2320.000 0.00000
2325.000 0.00000
2330.000 0.00000
2335.000 0.00000
2340.000 0.00000
2345.000 0.00000
2350.000 0.00000
2355.000 0.00000
2360.000 0.00000
2365.000 0.00000
2370.000 0.00000
2375.000 0.00000
2380.000 0.00000
2385.000 0.00000
2390.000 0.00000
2395.000 0.00000
2400.000 0.00000
2405.000 0.00000
2410.000 0.00000
2415.000 0.00000
2420.000 0.00000
2425.000 0.00000
2430.000 0.00000
2435.000 0.00000
2440.000 0.00000
2445.000 0.00000
2450.000 0.00000
2455.000 0.00000
2460.000 0.00000
2465.000 0.00000
2470.000 0.00000
2475.000 0.00000
2480.000 0.00000
2485.000 0.00000
2490.000 0.00000
2495.000 0.00000
2500.000 0.00000
2505.000 0.00000
2510.000 0.00000
2515.000 0.00000
2520.000 0.00000
2525.000 0.00000
2530.000 0.00000
2535.000 0.00000
2540.000 0.00000
2545.000 0.00000
2550.000 0.00000
2555.000 0.00000
2560.000 0.00000
2565.000 0.00000
2570.000 0.00000
2575.000 0.00000
2580.000 0.00000
2585.000 0.00000
2590.000 0.00000
2595.000 0.00000
2600.000 0.00000
2605.000 0.00000
2610.000 0.00000
2615.000 0.00000
2620.000 0.00000
2625.000 0.00000
2630.000 0.00000
2635.000 0.00000
2640.000 0.00000
2645.000 0.00000
2650.000 0.00000
2655.000 0.00000
2660.000 0.00001
2665.000 0.00001
2670.000 0.00001
2675.000 0.00002
2680.000 0.00002
2685.000 0.00002
2690.000 0.00001
2695.000 0.00001
2700.000 0.00000
2705.000 0.00000
2710.000 0.00000
2715.000 0.00000
2720.000 0.00000
2725.000 0.00000
2730.000 0.00000
2735.000 0.00000
2740.000 0.00000
2745.000 0.00000
2750.000 0.00000
2755.000 0.00004
2760.000 0.00009
2765.000 0.00014
2770.000 0.00019
2775.000 0.00022
2780.000 0.00023
2785.000 0.00023
2790.000 0.00019
2795.000 0.00012
2800.000 0.00000
2805.000 0.00000
2810.000 0.00000
2815.000 0.00000
2820.000 0.00000
2825.000 0.00000
2830.000 0.00000
2835.000 0.00000
2840.000 0.00000
2845.000 0.00000
2850.000 0.00000
2855.000 0.00060
2860.000 0.00134
2865.000 0.00220
2870.000 0.00313
2875.000 0.00410
2880.000 0.00509
2885.000 0.00605
2890.000 0.00695
2895.000 0.00776
2900.000 0.00845
2905.000 0.00898
2910.000 0.00938
2915.000 0.00966
2920.000 0.00983
2925.000 0.00992
2930.000 0.00996
2935.000 0.00995
2940.000 0.00991
2945.000 0.00988
2950.000 0.00985
2955.000 0.00987
2960.000 0.00991
2965.000 0.00999
2970.000 0.01009
2975.000 0.01023
2980.000 0.01039
2985.000 0.01058
2990.000 0.01079
2995.000 0.01101
3000.000 0.01126
3005.000 0.01153
3010.000 0.01182
3015.000 0.01213
3020.000 0.01248
3025.000 0.01286
3030.000 0.01329
3035.000 0.01376
3040.000 0.01428
3045.000 0.01485
3050.000 0.01549
3055.000 0.01618
3060.000 0.01695
3065.000 0.01777
3070.000 0.01866
3075.000 0.01962
3080.000 0.02063
3085.000 0.02172
3090.000 0.02286
3095.000 0.02407
3100.000 0.02534
3105.000 0.02668
3110.000 0.02808
3115.000 0.02956
3120.000 0.03111
3125.000 0.03274
3130.000 0.03445
3135.000 0.03626
3140.000 0.03815
3145.000 0.04014
3150.000 0.04224
3155.000 0.04442
3160.000 0.07331
3165.000 0.07452
3170.000 0.07520
3175.000 0.07478
3180.000 0.07230
3185.000 0.06756
3190.000 0.06352
3195.000 0.06277
3200.000 0.06700
3205.000 0.06524
3210.000 0.06686
3215.000 0.07548
3220.000 0.07855
3225.000 0.06449
3230.000 0.04159
3235.000 0.02317
3240.000 0.02279
3245.000 0.04741
3250.000 0.07738
3255.000 0.09208
3260.000 0.09358
3265.000 0.08953
3270.000 0.08727
3275.000 0.09194
3280.000 0.09999
3285.000 0.10652
3290.000 0.10959
3295.000 0.10803
3300.000 0.10070
3305.000 0.08936
3310.000 0.08727
3315.000 0.10358
3320.000 0.11949
3325.000 0.11724
3330.000 0.11115
3335.000 0.11745
3340.000 0.12797
3345.000 0.13080
3350.000 0.12368
3355.000 0.10913
3360.000 0.09935
3365.000 0.10390
3370.000 0.11230
3375.000 0.11370
3380.000 0.11576
3385.000 0.12693
3390.000 0.14007
3395.000 0.14622
3400.000 0.14462
3405.000 0.13787
3410.000 0.13370
3415.000 0.13764
3420.000 0.14129
3425.000 0.13649
3430.000 0.12981
3435.000 0.12818
3440.000 0.12507
3445.000 0.11489
3450.000 0.10919
3455.000 0.11814
3460.000 0.12913
3465.000 0.12922
3470.000 0.12690
3475.000 0.13158
3480.000 0.13485
3485.000 0.12883
3490.000 0.12555
3495.000 0.13652
3500.000 0.15127
3505.000 0.15691
3510.000 0.15258
3515.000 0.14244
3520.000 0.13849
3525.000 0.15004
3530.000 0.16781
3535.000 0.18038
3540.000 0.18616
3545.000 0.18534
3550.000 0.17535
3555.000 0.15543
3560.000 0.13491
3565.000 0.12266
3570.000 0.11580
3575.000 0.11022
3580.000 0.10859
3585.000 0.11338
3590.000 0.11937
3595.000 0.12103
3600.000 0.11935
3605.000 0.11750
3610.000 0.12093
3615.000 0.13261
3620.000 0.14351
3625.000 0.14496
3630.000 0.14174
3635.000 0.14077
3640.000 0.14414
3645.000 0.15292
3650.000 0.16904
3655.000 0.19117
3660.000 0.20418
3665.000 0.19529
3670.000 0.17512
3675.000 0.15840
3680.000 0.15303
3685.000 0.16151
3690.000 0.17148
3695.000 0.17091
3700.000 0.16386
3705.000 0.15689
3710.000 0.15038
3715.000 0.14359
3720.000 0.13747
3725.000 0.13239
3730.000 0.12472
3735.000 0.11298
3740.000 0.10855
3745.000 0.12002
3750.000 0.13184
3755.000 0.13015
3760.000 0.13184
3765.000 0.15358
3770.000 0.18053
3775.000 0.19438
3780.000 0.19445
3785.000 0.18555
3790.000 0.17689
3795.000 0.17585
3800.000 0.17818
3805.000 0.17736
3810.000 0.16952
3815.000 0.15354
3820.000 0.13670
3825.000 0.12737
3830.000 0.12991
3835.000 0.14501
3840.000 0.16281
3845.000 0.17262
3850.000 0.17088
3855.000 0.15944
3860.000 0.15436
3865.000 0.16632
3870.000 0.17015
3875.000 0.14512
3880.000 0.12409
3885.000 0.13948
3890.000 0.16824
3895.000 0.18194
3900.000 0.18601
3905.000 0.19057
3910.000 0.19063
3915.000 0.18080
3920.000 0.16915
3925.000 0.16480
3930.000 0.16772
3935.000 0.17494
3940.000 0.18078
3945.000 0.18092
3950.000 0.17904
3955.000 0.18059
3960.000 0.19020
3965.000 0.21008
3970.000 0.23372
3975.000 0.25456
3980.000 0.27444
3985.000 0.29587
3990.000 0.31548
3995.000 0.32957
4000.000 0.33891
4005.000 0.34589
4010.000 0.35485
4015.000 0.36803
4020.000 0.37707
4025.000 0.37361
4030.000 0.35981
4035.000 0.34319
4040.000 0.34220
4045.000 0.36854
4050.000 0.39616
4055.000 0.39929
4060.000 0.39117
4065.000 0.39036
4070.000 0.39756
4075.000 0.41019
4080.000 0.43042
4085.000 0.45663
4090.000 0.46743
4095.000 0.44698
4100.000 0.42152
4105.000 0.41872
4110.000 0.43008
4115.000 0.44139
4120.000 0.45206
4125.000 0.46246
4130.000 0.46355
4135.000 0.44967
4140.000 0.43821
4145.000 0.44547
4150.000 0.46006
4155.000 0.46723
4160.000 0.46628
4165.000 0.46040
4170.000 0.45398
4175.000 0.45077
4180.000 0.45062
4185.000 0.45203
4190.000 0.45180
4195.000 0.44840
4200.000 0.44870
4205.000 0.45425
4210.000 0.43693
4215.000 0.37514
4220.000 0.30286
4225.000 0.26200
4230.000 0.27068
4235.000 0.32845
4240.000 0.38440
4245.000 0.39394
4250.000 0.38813
4255.000 0.40416
4260.000 0.42811
4265.000 0.43807
4270.000 0.43114
4275.000 0.41269
4280.000 0.40205
4285.000 0.41330
4290.000 0.42554
4295.000 0.41996
4300.000 0.42109
4305.000 0.45418
4310.000 0.50395
4315.000 0.54754
4320.000 0.57220
4325.000 0.57459
4330.000 0.57889
4335.000 0.60493
4340.000 0.62779
4345.000 0.62310
4350.000 0.61345
4355.000 0.62355
4360.000 0.63980
4365.000 0.64208
4370.000 0.62247
4375.000 0.58460
4380.000 0.56619
4385.000 0.59588
4390.000 0.63195
4395.000 0.63199
4400.000 0.62133
4405.000 0.63194
4410.000 0.65452
4415.000 0.67150
4420.000 0.67333
4425.000 0.66018
4430.000 0.66328
4435.000 0.70445
4440.000 0.73704
4445.000 0.71793
4450.000 0.68659
4455.000 0.69202
4460.000 0.73862
4465.000 0.81326
4470.000 0.87717
4475.000 0.89877
4480.000 0.90088
4485.000 0.91132
4490.000 0.92354
4495.000 0.92819
4500.000 0.93920
4505.000 0.96687
4510.000 0.98360
4515.000 0.96160
4520.000 0.91010
4525.000 0.85039
4530.000 0.81509
4535.000 0.82978
4540.000 0.88086
4545.000 0.94620
4550.000 1.00887
4555.000 1.05536
4560.000 1.08062
4565.000 1.08472
4570.000 1.07988
4575.000 1.07816
4580.000 1.07875
4585.000 1.07876
4590.000 1.07979
4595.000 1.08559
4600.000 1.10406
4605.000 1.13741
4610.000 1.16086
4615.000 1.15419
4620.000 1.14256
4625.000 1.15055
4630.000 1.15513
4635.000 1.13231
4640.000 1.10214
4645.000 1.08892
4650.000 1.09008
4655.000 1.09650
4660.000 1.09980
4665.000 1.09477
4670.000 1.08822
4675.000 1.08853
4680.000 1.09842
4685.000 1.11511
4690.000 1.11951
4695.000 1.09803
4700.000 1.07550
4705.000 1.07744
4710.000 1.09367
4715.000 1.10715
4720.000 1.10906
4725.000 1.09604
4730.000 1.07811
4735.000 1.06625
4740.000 1.06169
4745.000 1.05964
4750.000 1.04097
4755.000 0.99157
4760.000 0.93175
4765.000 0.88587
4770.000 0.86006
4775.000 0.85469
4780.000 0.86541
4785.000 0.88761
4790.000 0.92048
4795.000 0.96243
4800.000 1.00511
4805.000 1.03850
4810.000 1.05300
4815.000 1.04311
4820.000 1.01957
4825.000 0.99626
4830.000 0.98355
4835.000 0.98872
4840.000 1.01045
4845.000 1.04187
4850.000 1.06281
4855.000 1.05721
4860.000 1.03903
4865.000 1.02485
4870.000 1.01192
4875.000 0.99581
4880.000 0.98467
4885.000 0.98826
4890.000 1.01011
4895.000 1.04656
4900.000 1.07126
4905.000 1.06372
4910.000 1.04944
4915.000 1.05635
4920.000 1.07617
4925.000 1.09443
4930.000 1.10800
4935.000 1.11632
4940.000 1.11769
4945.000 1.10912
4950.000 1.08358
4955.000 1.04080
4960.000 1.01145
4965.000 1.01990
4970.000 1.03438
4975.000 1.02055
4980.000 0.98989
4985.000 0.96270
4990.000 0.94860
4995.000 0.94904
5000.000 0.94331
5005.000 0.91598
5010.000 0.89488
5015.000 0.90667
5020.000 0.93002
5025.000 0.93853
5030.000 0.93341
5035.000 0.92299
5040.000 0.91625
5045.000 0.91869
5050.000 0.92097
5055.000 0.91311
5060.000 0.89731
5065.000 0.87858
5070.000 0.86118
5075.000 0.84879
5080.000 0.84374
5085.000 0.84611
5090.000 0.84847
5095.000 0.84363
5100.000 0.83281
5105.000 0.81991
5110.000 0.81119
5115.000 0.81034
5120.000 0.80835
5125.000 0.79956
5130.000 0.80441
5135.000 0.83753
5140.000 0.86423
5145.000 0.85269
5150.000 0.83196
5155.000 0.83158
5160.000 0.82216
5165.000 0.77423
5170.000 0.71700
5175.000 0.68866
5180.000 0.70461
5185.000 0.76330
5190.000 0.81825
5195.000 0.82773
5200.000 0.81388
5205.000 0.81339
5210.000 0.85728
5215.000 0.95698
5220.000 1.05133
5225.000 1.08447
5230.000 1.09455
5235.000 1.12732
5240.000 1.16521
5245.000 1.17890
5250.000 1.15548
5255.000 1.09382
5260.000 1.02350
5265.000 0.98020
5270.000 0.99320
5275.000 1.07272
5280.000 1.15928
5285.000 1.19457
5290.000 1.19467
5295.000 1.19184
5300.000 1.20857
5305.000 1.25257
5310.000 1.28207
5315.000 1.25905
5320.000 1.20981
5325.000 1.17035
5330.000 1.15099
5335.000 1.15387
5340.000 1.17401
5345.000 1.20553
5350.000 1.24594
5355.000 1.29011
5360.000 1.31891
5365.000 1.31867
5370.000 1.31154
5375.000 1.32074
5380.000 1.33778
5385.000 1.34645
5390.000 1.33138
5395.000 1.28685
5400.000 1.24484
5405.000 1.23969
5410.000 1.27741
5415.000 1.34766
5420.000 1.40295
5425.000 1.40253
5430.000 1.36980
5435.000 1.33962
5440.000 1.32857
5445.000 1.34235
5450.000 1.36131
5455.000 1.36648
5460.000 1.36695
5465.000 1.37411
5470.000 1.38062
5475.000 1.37992
5480.000 1.38725
5485.000 1.41519
5490.000 1.44374
5495.000 1.44961
5500.000 1.42885
5505.000 1.38830
5510.000 1.35859
5515.000 1.36715
5520.000 1.40483
5525.000 1.45225
5530.000 1.48562
5535.000 1.49030
5540.000 1.49249
5545.000 1.51686
5550.000 1.54124
5555.000 1.53970
5560.000 1.51817
5565.000 1.49028
5570.000 1.46839
5575.000 1.45978
5580.000 1.45242
5585.000 1.43212
5590.000 1.39521
5595.000 1.34939
5600.000 1.33707
5605.000 1.38896
5610.000 1.45415
5615.000 1.47803
5620.000 1.47273
5625.000 1.46470
5630.000 1.47090
5635.000 1.49958
5640.000 1.53343
5645.000 1.55387
5650.000 1.56275
5655.000 1.56477
5660.000 1.55569
5665.000 1.53542
5670.000 1.52953
5675.000 1.55749
5680.000 1.58882
5685.000 1.59156
5690.000 1.57795
5695.000 1.56534
5700.000 1.54737
5705.000 1.51948
5710.000 1.50792
5715.000 1.53399
5720.000 1.56845
5725.000 1.58153
5730.000 1.59206
5735.000 1.62170
5740.000 1.65498
5745.000 1.67243
5750.000 1.67580
5755.000 1.67215
5760.000 1.66856
5765.000 1.67043
5770.000 1.67651
5775.000 1.68390
5780.000 1.68969
5785.000 1.69206
5790.000 1.69344
5795.000 1.69734
5800.000 1.70725
5805.000 1.68998
5810.000 1.69085
5815.000 1.69119
5820.000 1.69315
5825.000 1.70262
5830.000 1.70023
5835.000 1.68557
5840.000 1.68042
5845.000 1.66886
5850.000 1.65174
5855.000 1.60559
5860.000 1.55863
5865.000 1.53183
5870.000 1.48413
5875.000 1.42370
5880.000 1.32245
5885.000 1.15289
5890.000 0.98536
5895.000 0.97179
5900.000 1.14775
5905.000 1.29628
5910.000 1.37837
5915.000 1.43348
5920.000 1.48297
5925.000 1.51680
5930.000 1.54612
5935.000 1.57971
5940.000 1.60231
5945.000 1.60570
5950.000 1.60385
5955.000 1.59622
5960.000 1.61125
5965.000 1.62608
5970.000 1.63044
5975.000 1.63779
5980.000 1.63958
5985.000 1.64693
5990.000 1.66643
5995.000 1.67259
6000.000 1.65589
6005.000 1.65172
6010.000 1.64591
6015.000 1.63740
6020.000 1.64823
6025.000 1.69066
6030.000 1.72227
6035.000 1.74917
6040.000 1.72329
6045.000 1.76725
6050.000 1.76383
6055.000 1.75650
6060.000 1.75200
6065.000 1.73764
6070.000 1.75695
6075.000 1.75757
6080.000 1.73156
6085.000 1.72261
6090.000 1.72006
6095.000 1.71554
6100.000 1.67455
6105.000 1.62964
6110.000 1.67665
6115.000 1.69648
6120.000 1.58143
6125.000 1.58894
6130.000 1.69590
6135.000 1.67642
6140.000 1.68815
6145.000 1.70590
6150.000 1.67144
6155.000 1.61610
6160.000 1.47152
6165.000 1.40874
6170.000 1.47436
6175.000 1.53143
6180.000 1.57111
6185.000 1.56861
6190.000 1.52023
6195.000 1.54076
6200.000 1.55631
6205.000 1.57706
6210.000 1.54657
6215.000 1.48067
6220.000 1.45785
6225.000 1.44114
6230.000 1.42203
6235.000 1.43605
6240.000 1.42924
6245.000 1.42830
6250.000 1.45293
6255.000 1.44847
6260.000 1.45630
6265.000 1.50064
6270.000 1.51964
6275.000 1.52168
6280.000 1.53270
6285.000 1.56738
6290.000 1.58840
6295.000 1.57659
6300.000 1.58459
6305.000 1.61387
6310.000 1.64237
6315.000 1.65298
6320.000 1.65980
6325.000 1.69178
6330.000 1.69516
6335.000 1.69706
6340.000 1.71281
6345.000 1.72104
6350.000 1.74240
6355.000 1.72211
6360.000 1.68305
6365.000 1.67947
6370.000 1.68828
6375.000 1.67419
6380.000 1.62848
6385.000 1.61940
6390.000 1.63156
6395.000 1.66313
6400.000 1.68612
6405.000 1.73160
6410.000 1.75066
6415.000 1.77296
6420.000 1.76712
6425.000 1.79662
6430.000 1.80070
6435.000 1.78454
6440.000 1.77777
6445.000 1.82819
6450.000 1.81313
6455.000 1.84086
6460.000 1.83859
6465.000 1.80648
6470.000 1.85906
6475.000 1.87408
6480.000 1.88474
6485.000 1.87476
6490.000 1.85880
6495.000 1.79396
6500.000 1.84623
6505.000 1.91838
6510.000 1.95858
6515.000 1.97045
6520.000 1.99479
6525.000 2.00897
6530.000 2.01510
6535.000 2.02586
6540.000 2.03839
6545.000 2.01469
6550.000 1.99477
6555.000 1.97624
6560.000 1.95664
6565.000 1.92508
6570.000 1.94866
6575.000 1.95079
6580.000 1.98690
6585.000 1.99733
6590.000 1.99643
6595.000 1.97691
6600.000 2.00948
6605.000 2.00915
6610.000 1.99234
6615.000 1.99747
6620.000 1.97973
6625.000 1.97071
6630.000 1.96402
6635.000 1.95828
6640.000 1.95822
6645.000 1.94884
6650.000 1.93393
6655.000 1.90603
6660.000 1.89851
6665.000 1.88257
6670.000 1.89652
6675.000 1.87508
6680.000 1.83824
6685.000 1.83536
6690.000 1.83518
6695.000 1.82985
6700.000 1.83221
6705.000 1.82998
6710.000 1.81992
6715.000 1.77503
6720.000 1.74482
6725.000 1.77411
6730.000 1.77698
6735.000 1.77957
6740.000 1.77492
6745.000 1.75669
6750.000 1.73759
6755.000 1.74489
6760.000 1.75980
6765.000 1.75108
6770.000 1.75134
6775.000 1.76423
6780.000 1.74329
6785.000 1.71235
6790.000 1.71114
6795.000 1.70766
6800.000 1.71389
6805.000 1.71264
6810.000 1.71253
6815.000 1.71120
6820.000 1.71123
6825.000 1.72587
6830.000 1.73284
6835.000 1.70922
6840.000 1.71718
6845.000 1.72536
6850.000 1.73368
6855.000 1.74208
6860.000 1.75052
6865.000 1.75897
6870.000 1.76739
6875.000 1.77575
6880.000 1.78401
6885.000 1.79216
6890.000 1.80015
6895.000 1.80795
6900.000 1.81553
6905.000 1.82287
6910.000 1.83004
6915.000 1.83711
6920.000 1.84416
6925.000 1.85126
6930.000 1.85850
6935.000 1.86595
6940.000 1.87368
6945.000 1.88179
6950.000 1.89033
6955.000 1.89936
6960.000 1.90871
6965.000 1.91819
6970.000 1.92762
6975.000 1.93679
6980.000 1.89131
6985.000 1.91681
6990.000 1.91180
6995.000 1.91452
7000.000 1.92357
7005.000 1.93940
7010.000 1.93546
7015.000 1.94014
7020.000 1.94848
7025.000 1.96299
7030.000 1.99417
7035.000 2.01378
7040.000 2.02745
7045.000 2.05695
7050.000 2.03767
7055.000 1.96709
7060.000 1.93285
7065.000 1.92726
7070.000 1.93573
7075.000 1.94912
7080.000 1.92302
7085.000 1.89828
7090.000 1.85392
7095.000 1.85619
7100.000 1.86505
7105.000 1.87070
7110.000 1.87563
7115.000 1.87116
7120.000 1.87207
7125.000 1.81764
7130.000 1.77077
7135.000 1.76432
7140.000 1.77195
7145.000 1.77733
7150.000 1.78213
7155.000 1.84822
7160.000 1.85217
7165.000 1.85690
7170.000 1.86925
7175.000 1.86674
7180.000 1.86735
7185.000 1.83826
7190.000 1.82700
7195.000 1.83708
7200.000 1.80170
7205.000 1.79193
7210.000 1.83615
7215.000 1.88628
7220.000 1.92815
7225.000 1.93819
7230.000 1.93709
7235.000 1.94040
7240.000 1.93966
7245.000 1.94277
7250.000 1.95978
7255.000 1.96444
7260.000 1.98328
7265.000 1.98506
7270.000 2.00137
7275.000 1.98948
7280.000 2.02520
7285.000 2.04620
7290.000 2.03549
7295.000 2.06451
7300.000 2.07478
7305.000 2.07160
7310.000 2.07587
7315.000 2.07940
7320.000 2.07670
7325.000 2.06567
7330.000 2.07228
7335.000 2.10788
7340.000 2.12152
7345.000 2.10035
7350.000 2.10784
7355.000 2.08720
7360.000 2.08402
7365.000 2.10695
7370.000 2.13599
7375.000 2.15255
7380.000 2.15393
7385.000 2.14795
7390.000 2.13320
7395.000 2.14025
7400.000 2.12458
7405.000 2.14876
7410.000 2.14529
7415.000 2.14342
7420.000 2.14474
7425.000 2.15296
7430.000 2.16456
7435.000 2.16687
7440.000 2.16500
7445.000 2.15426
7450.000 2.16056
7455.000 2.18185
7460.000 2.16133
7465.000 2.14707
7470.000 2.17117
7475.000 2.17062
7480.000 2.16694
7485.000 2.16084
7490.000 2.14158
7495.000 2.13012
7500.000 2.15739
7505.000 2.15501
7510.000 2.14521
7515.000 2.16360
7520.000 2.17587
7525.000 2.17218
7530.000 2.17692
7535.000 2.18963
7540.000 2.19296
7545.000 2.18827
7550.000 2.18531
7555.000 2.18326
7560.000 2.18076
7565.000 2.17787
7570.000 2.17463
7575.000 2.17107
7580.000 2.16724
7585.000 2.16318
7590.000 2.15893
7595.000 2.15453
7600.000 2.15002
7605.000 2.14545
7610.000 2.14086
7615.000 2.13627
7620.000 2.13174
7625.000 2.12729
7630.000 2.12297
7635.000 2.11881
7640.000 2.11485
7645.000 2.11114
7650.000 2.10770
7655.000 2.10457
7660.000 2.10173
7665.000 2.09915
7670.000 2.09682
7675.000 2.09471
7680.000 2.09278
7685.000 2.09102
7690.000 2.08941
7695.000 2.08791
7700.000 2.08650
7705.000 2.08516
7710.000 2.08391
7715.000 2.08277
7720.000 2.08176
7725.000 2.08088
7730.000 2.08018
7735.000 2.10526
7740.000 2.10564
7745.000 2.09732
7750.000 2.07973
7755.000 2.09375
7760.000 2.10335
7765.000 2.10965
7770.000 2.12470
7775.000 2.13397
7780.000 2.11435
7785.000 2.11508
7790.000 2.11440
7795.000 2.12068
7800.000 2.11671
7805.000 2.11865
7810.000 2.12048
7815.000 2.12546
7820.000 2.11912
7825.000 2.11952
7830.000 2.10784
7835.000 2.10246
7840.000 2.12614
7845.000 2.14083
7850.000 2.14215
7855.000 2.14558
7860.000 2.15169
7865.000 2.15430
7870.000 2.15327
7875.000 2.15278
7880.000 2.15723
7885.000 2.16126
7890.000 2.15714
7895.000 2.15015
7900.000 2.14286
7905.000 2.13452
7910.000 2.12457
7915.000 2.11720
7920.000 2.11662
7925.000 2.11305
7930.000 2.11590
7935.000 2.09854
7940.000 2.08899
7945.000 2.07894
7950.000 2.08312
7955.000 2.10683
7960.000 2.11024
7965.000 2.11743
7970.000 2.13276
7975.000 2.13877
7980.000 2.13445
7985.000 2.14352
7990.000 2.14566
7995.000 2.13941
8000.000 2.12931
8005.000 2.15789
8010.000 2.16041
8015.000 2.15858
8020.000 2.15997
8025.000 2.14326
8030.000 2.14528
8035.000 2.15087
8040.000 2.15249
8045.000 2.14114
8050.000 2.14906
8055.000 2.16828
8060.000 2.17368
8065.000 2.16734
8070.000 2.14978
8075.000 2.15051
8080.000 2.15408
8085.000 2.12088
8090.000 2.15088
8095.000 2.15418
8100.000 2.15874
8105.000 2.16990
8110.000 2.17387
8115.000 2.17226
8120.000 2.18368
8125.000 2.20755
8130.000 2.19898
8135.000 2.20171
8140.000 2.20111
8145.000 2.18543
8150.000 2.16940
8155.000 2.15847
8160.000 2.11753
8165.000 2.10870
8170.000 2.13294
8175.000 2.10021
8180.000 2.04235
8185.000 1.97524
8190.000 1.98860
8195.000 1.91415
8200.000 1.96594
8205.000 2.04915
8210.000 2.08206
8215.000 2.10321
8220.000 2.09625
8225.000 2.06159
8230.000 2.03977
8235.000 2.09263
8240.000 2.12987
8245.000 2.12806
8250.000 2.14707
8255.000 2.14733
8260.000 2.16099
8265.000 2.18277
8270.000 2.17191
8275.000 2.15616
8280.000 2.15092
8285.000 2.15180
8290.000 2.14060
8295.000 2.15106
8300.000 2.14312
8305.000 2.12891
8310.000 2.12459
8315.000 2.11230
8320.000 2.09440
8325.000 2.09104
8330.000 2.07461
8335.000 2.10015
8340.000 2.12005
8345.000 2.14937
8350.000 2.15664
8355.000 2.16780
8360.000 2.17439
8365.000 2.16359
8370.000 2.17239
8375.000 2.16563
8380.000 2.13762
8385.000 2.10270
8390.000 2.11783
8395.000 2.15078
8400.000 2.15909
8405.000 2.16993
8410.000 2.16625
8415.000 2.15639
8420.000 2.16706
8425.000 2.15637
8430.000 2.15688
8435.000 2.11851
8440.000 2.15568
8445.000 2.18161
8450.000 2.17195
8455.000 2.16317
8460.000 2.15989
8465.000 2.14421
8470.000 2.13345
8475.000 2.14554
8480.000 2.15641
8485.000 2.16039
8490.000 2.15048
8495.000 2.09058
8500.000 2.05453
8505.000 2.09967
8510.000 2.11603
8515.000 2.08178
8520.000 2.08013
8525.000 2.08974
8530.000 2.06854
8535.000 2.02246
8540.000 1.87997
8545.000 1.86912
8550.000 1.96091
8555.000 2.02858
8560.000 2.04942
8565.000 2.07399
8570.000 2.10517
8575.000 2.13470
8580.000 2.15813
8585.000 2.16122
8590.000 2.17601
8595.000 2.17262
8600.000 2.16909
8605.000 2.16121
8610.000 2.13885
8615.000 2.12813
8620.000 2.13073
8625.000 2.14056
8630.000 2.15580
8635.000 2.15485
8640.000 2.15815
8645.000 2.15313
8650.000 2.13402
8655.000 2.08819
8660.000 1.97638
8665.000 1.92345
8670.000 2.00186
8675.000 1.99321
8680.000 1.99887
8685.000 1.98768
8690.000 1.98286
8695.000 2.04045
8700.000 2.08270
8705.000 2.11543
8710.000 2.11957
8715.000 2.12524
8720.000 2.13512
8725.000 2.14378
8730.000 2.14159
8735.000 2.12283
8740.000 2.13539
8745.000 2.14122
8750.000 2.12863
8755.000 2.11253
8760.000 2.09989
8765.000 2.09057
8770.000 2.07553
8775.000 2.06916
8780.000 2.07333
8785.000 2.07991
8790.000 2.09780
8795.000 2.09278
8800.000 2.07565
8805.000 2.02629
8810.000 2.02376
8815.000 2.06531
8820.000 2.05499
8825.000 2.01213
8830.000 2.05112
8835.000 2.07129
8840.000 2.07000
8845.000 2.08857
8850.000 2.09187
8855.000 2.09188
8860.000 2.09848
8865.000 2.06334
8870.000 2.04065
8875.000 2.04553
8880.000 2.04260
8885.000 2.03386
8890.000 2.03994
8895.000 2.03315
8900.000 2.04003
8905.000 2.04354
8910.000 2.04727
8915.000 2.04818
8920.000 2.04511
8925.000 2.03789
8930.000 2.04027
8935.000 2.03323
8940.000 2.03065
8945.000 2.01667
8950.000 2.02053
8955.000 2.02033
8960.000 2.03876
8965.000 2.02873
8970.000 2.03026
8975.000 2.03538
8980.000 2.02767
8985.000 1.98604
8990.000 1.95137
8995.000 1.99141
9000.000 1.99354
9005.000 1.98514
9010.000 1.99381
9015.000 1.99082
9020.000 2.01860
9025.000 2.03034
9030.000 2.07603
9035.000 2.10717
9040.000 2.11962
9045.000 2.12730
9050.000 2.12274
9055.000 2.11202
9060.000 2.09067
9065.000 2.06756
9070.000 2.03589
9075.000 2.02530
9080.000 2.01504
9085.000 2.01148
9090.000 2.02418
9095.000 2.05795
9100.000 2.05646
9105.000 2.06269
9110.000 2.07452
9115.000 2.05969
9120.000 2.04249
9125.000 2.03859
9130.000 2.00863
9135.000 2.00016
9140.000 2.00841
9145.000 2.00928
9150.000 1.99083
9155.000 1.98541
9160.000 2.01373
9165.000 2.02650
9170.000 1.98937
9175.000 1.99041
9180.000 2.02027
9185.000 2.03559
9190.000 2.04532
9195.000 2.04808
9200.000 2.05097
9205.000 2.05932
9210.000 2.06645
9215.000 2.07096
9220.000 2.07146
9225.000 2.06691
9230.000 2.05773
9235.000 2.04471
9240.000 2.02862
9245.000 2.01095
9250.000 1.99591
9255.000 1.98839
9260.000 1.99327
9265.000 2.01317
9270.000 2.04165
9275.000 2.07003
9280.000 2.08962
9285.000 2.09400
9290.000 2.08587
9295.000 2.07022
9300.000 2.05204
9305.000 2.03607
9310.000 2.02608
9315.000 2.02560
9320.000 2.03816
9325.000 2.06468
9330.000 2.09571
9335.000 2.11917
9340.000 2.12299
9345.000 2.09933
9350.000 2.05726
9355.000 2.01006
9360.000 1.97103
9365.000 1.95101
9370.000 1.95084
9375.000 1.96890
9380.000 2.00356
9385.000 2.05152
9390.000 2.10275
9395.000 2.14556
9400.000 2.16825
9405.000 2.16258
9410.000 2.13416
9415.000 2.09206
9420.000 2.04534
9425.000 2.00218
9430.000 1.96711
9435.000 1.94377
9440.000 1.93583
9445.000 1.94506
9450.000 1.96590
9455.000 1.99094
9460.000 2.01277
9465.000 2.02557
9470.000 2.02973
9475.000 2.02723
9480.000 2.02005
9485.000 2.01011
9490.000 1.99922
9495.000 1.98912
9500.000 1.98158
9505.000 1.97814
9510.000 1.97954
9515.000 1.98632
9520.000 1.99901
9525.000 2.01729
9530.000 2.03745
9535.000 2.05492
9540.000 2.06514
9545.000 2.06487
9550.000 2.05619
9555.000 2.04250
9560.000 2.02721
9565.000 2.01313
9570.000 2.00093
9575.000 1.99068
9580.000 1.98248
9585.000 1.97652
9590.000 1.97336
9595.000 1.97367
9600.000 1.97811
9605.000 1.98655
9610.000 1.99577
9615.000 2.00174
9620.000 2.00044
9625.000 1.98936
9630.000 1.97195
9635.000 1.95318
9640.000 1.93802
9645.000 1.93023
9650.000 1.92875
9655.000 1.93131
9660.000 1.93564
9665.000 1.93982
9670.000 1.94338
9675.000 1.94626
9680.000 1.94838
9685.000 1.94962
9690.000 1.94978
9695.000 1.94862
9700.000 1.94593
9705.000 1.94178
9710.000 1.93764
9715.000 1.93529
9720.000 1.93651
9725.000 1.94221
9730.000 1.94992
9735.000 1.95626
9740.000 1.95788
9745.000 1.95263
9750.000 1.94318
9755.000 1.93676
9760.000 1.92626
9765.000 1.93911
9770.000 1.94172
9775.000 1.94205
9780.000 1.94023
9785.000 1.91167
9790.000 1.92795
9795.000 1.93423
9800.000 1.93110
9805.000 1.93606
9810.000 1.94831
9815.000 1.95103
9820.000 1.94843
9825.000 1.93297
9830.000 1.94320
9835.000 1.95043
9840.000 1.93558
9845.000 1.94469
9850.000 1.94929
9855.000 1.94457
9860.000 1.95222
9865.000 1.94831
9870.000 1.91279
9875.000 1.91985
9880.000 1.95383
9885.000 1.93695
9890.000 1.92569
9895.000 1.91366
9900.000 1.90814
9905.000 1.91588
9910.000 1.88098
9915.000 1.88269
9920.000 1.88031
9925.000 1.89159
9930.000 1.89208
9935.000 1.89539
9940.000 1.89601
9945.000 1.90705
9950.000 1.94505
9955.000 1.91180
9960.000 1.89543
9965.000 1.90813
9970.000 1.89932
9975.000 1.91273
9980.000 1.89469
9985.000 1.88166
9990.000 1.90928
9995.000 1.90148
10000.000 1.90192
10005.000 1.90035
10010.000 1.91378
10015.000 1.91636
10020.000 1.96922
10025.000 1.94137
10030.000 1.91249
10035.000 1.89146
10040.000 1.87672
10045.000 1.88901
10050.000 1.88231
10055.000 1.86066
10060.000 1.93193
10065.000 1.92118
10070.000 1.88211
10075.000 1.85508
10080.000 1.85472
10085.000 1.87268
10090.000 1.87589
10095.000 1.87291
10100.000 1.86367
10105.000 1.87645
10110.000 1.88797
10115.000 1.89787
10120.000 1.90577
10125.000 1.91115
10130.000 1.91288
10135.000 1.90963
10140.000 1.90011
10145.000 1.88420
10150.000 1.86660
10155.000 1.85320
10160.000 1.84989
10165.000 1.86019
10170.000 1.87806
10175.000 1.89511
10180.000 1.90293
10185.000 1.89556
10190.000 1.87685
10195.000 1.85310
10200.000 1.83062
10205.000 1.81441
10210.000 1.80439
10215.000 1.79918
10220.000 1.79741
10225.000 1.79796
10230.000 1.80081
10235.000 1.80618
10240.000 1.81432
10245.000 1.82524
10250.000 1.83817
10255.000 1.85210
10260.000 1.86605
10265.000 1.87897
10270.000 1.88969
10275.000 1.89699
10280.000 1.89966
10285.000 1.89698
10290.000 1.89014
10295.000 1.88084
10300.000 1.87076
10305.000 1.86340
10310.000 1.85857
10315.000 1.85401
10320.000 1.84965
10325.000 1.84544
10330.000 1.84144
10335.000 1.83780
10340.000 1.83461
10345.000 1.83212
10350.000 1.83104
10355.000 1.83221
10360.000 1.83647
10365.000 1.84407
10370.000 1.85295
10375.000 1.86049
10380.000 1.86407
10385.000 1.86200
10390.000 1.85637
10395.000 1.85024
10400.000 1.84663
10405.000 1.84774
10410.000 1.85230
10415.000 1.85819
10420.000 1.86331
10425.000 1.86595
10430.000 1.86617
10435.000 1.86447
10440.000 1.86131
10445.000 1.85714
10450.000 1.85211
10455.000 1.84631
10460.000 1.83985
10465.000 1.83306
10470.000 1.82723
10475.000 1.82387
10480.000 1.82452
10485.000 1.82983
10490.000 1.83705
10495.000 1.84254
10500.000 1.84268
10505.000 1.83520
10510.000 1.82329
10515.000 1.81149
10520.000 1.80434
10525.000 1.80511
10530.000 1.81200
10535.000 1.82195
10540.000 1.83188
10545.000 1.83919
10550.000 1.84310
10555.000 1.84330
10560.000 1.83947
10565.000 1.83181
10570.000 1.82256
10575.000 1.81446
10580.000 1.81026
10585.000 1.81179
10590.000 1.81723
10595.000 1.82383
10600.000 1.82884
10605.000 1.83016
10610.000 1.82823
10615.000 1.82414
10620.000 1.81897
10625.000 1.80821
10630.000 1.80738
10635.000 1.80654
10640.000 1.80571
10645.000 1.80488
10650.000 1.80405
10655.000 1.80323
10660.000 1.80240
10665.000 1.80158
10670.000 1.80076
10675.000 1.79994
10680.000 1.79912
10685.000 1.79830
10690.000 1.79749
10695.000 1.79667
10700.000 1.79586
10705.000 1.79505
10710.000 1.79424
10715.000 1.79343
10720.000 1.79263
10725.000 1.79183
10730.000 1.79102
10735.000 1.79022
10740.000 1.78942
10745.000 1.78863
10750.000 1.78783
10755.000 1.78704
10760.000 1.78624
10765.000 1.78545
10770.000 1.78466
10775.000 1.78388
10780.000 1.78309
10785.000 1.78230
10790.000 1.78152
10795.000 1.78074
10800.000 1.77996
10805.000 1.77918
10810.000 1.77840
10815.000 1.77763
10820.000 1.77685
10825.000 1.77608
10830.000 1.77531
10835.000 1.77454
10840.000 1.77377
10845.000 1.77300
10850.000 1.77224
10855.000 1.77147
10860.000 1.77071
10865.000 1.76995
10870.000 1.76919
10875.000 1.76843
10880.000 1.76767
10885.000 1.76692
10890.000 1.76617
10895.000 1.76541
10900.000 1.76466
10905.000 1.76391
10910.000 1.76316
10915.000 1.76242
10920.000 1.76167
10925.000 1.76093
10930.000 1.76018
10935.000 1.75944
10940.000 1.75870
10945.000 1.75796
10950.000 1.75722
10955.000 1.75649
10960.000 1.75575
10965.000 1.75502
10970.000 1.75429
10975.000 1.75356
10980.000 1.75283
10985.000 1.75210
10990.000 1.75137
10995.000 1.75064
11000.000 1.74992
11005.000 1.74920
11010.000 1.74847
11015.000 1.74775
11020.000 1.74703
11025.000 1.74631
11030.000 1.74560
11035.000 1.74488
11040.000 1.74417
11045.000 1.74345
11050.000 1.74274
11055.000 1.74203
11060.000 1.74132
11065.000 1.74061
11070.000 1.73990
11075.000 1.73920
11080.000 1.73849
11085.000 1.73779
11090.000 1.73709
11095.000 1.73638
11100.000 1.73568
11105.000 1.73499
11110.000 1.73429
11115.000 1.73359
11120.000 1.73289
11125.000 1.73220
11130.000 1.73150
11135.000 1.73081
11140.000 1.73012
11145.000 1.72943
11150.000 1.72874
11155.000 1.72805
11160.000 1.72736
11165.000 1.72668
11170.000 1.72599
11175.000 1.72531
11180.000 1.72463
11185.000 1.72395
11190.000 1.72326
11195.000 1.72258
11200.000 1.72191
11205.000 1.72123
11210.000 1.72055
11215.000 1.71987
11220.000 1.71920
11225.000 1.71853
11230.000 1.71785
11235.000 1.71718
11240.000 1.71651
11245.000 1.71584
11250.000 1.71517
11255.000 1.71450
11260.000 1.71384
11265.000 1.71317
11270.000 1.71250
11275.000 1.71184
11280.000 1.71118
11285.000 1.71052
11290.000 1.70985
11295.000 1.70919
11300.000 1.70853
11305.000 1.70788
11310.000 1.70722
11315.000 1.70656
11320.000 1.70590
11325.000 1.70525
11330.000 1.70459
11335.000 1.70394
11340.000 1.70329
11345.000 1.70264
11350.000 1.70199
11355.000 1.70134
11360.000 1.70069
11365.000 1.70004
11370.000 1.69939
11375.000 1.69874
11380.000 1.69810
11385.000 1.69745
11390.000 1.69681
11395.000 1.69616
11400.000 1.69552
11405.000 1.69488
11410.000 1.69424
11415.000 1.69360
11420.000 1.69296
11425.000 1.69232
11430.000 1.69168
11435.000 1.69104
11440.000 1.69040
11445.000 1.68977
11450.000 1.68913
11455.000 1.68850
11460.000 1.68786
11465.000 1.68723
11470.000 1.68660
11475.000 1.68597
11480.000 1.68534
11485.000 1.68471
11490.000 1.68408
11495.000 1.68345
11500.000 1.68282
11505.000 1.68219
11510.000 1.68156
11515.000 1.68094
11520.000 1.68031
11525.000 1.67968
11530.000 1.67906
11535.000 1.67844
11540.000 1.67781
11545.000 1.67719
11550.000 1.67657
11555.000 1.67594
11560.000 1.67532
11565.000 1.67470
11570.000 1.67408
11575.000 1.67346
11580.000 1.67284
11585.000 1.67223
11590.000 1.67161
11595.000 1.67099
11600.000 1.67037
11605.000 1.66976
11610.000 1.66914
11615.000 1.66853
11620.000 1.66791
11625.000 1.66730
11630.000 1.66668
11635.000 1.66607
11640.000 1.66546
11645.000 1.66485
11650.000 1.66423
11655.000 1.66362
11660.000 1.66301
11665.000 1.66240
11670.000 1.66179
11675.000 1.66118
11680.000 1.66057
11685.000 1.65996
11690.000 1.65935
11695.000 1.65875
11700.000 1.65814
11705.000 1.65753
11710.000 1.65693
11715.000 1.65632
11720.000 1.65571
11725.000 1.65511
11730.000 1.65450
11735.000 1.65390
11740.000 1.65330
11745.000 1.65269
11750.000 1.65209
11755.000 1.65148
11760.000 1.65088
11765.000 1.65028
11770.000 1.64968
11775.000 1.64907
11780.000 1.64847
11785.000 1.64787
11790.000 1.64727
11795.000 1.64667
11800.000 1.64607
11805.000 1.64547
11810.000 1.64487
11815.000 1.64427
11820.000 1.64367
11825.000 1.64307
11830.000 1.64247
11835.000 1.64187
11840.000 1.64127
11845.000 1.64068
11850.000 1.64008
11855.000 1.63948
11860.000 1.63888
11865.000 1.63828
11870.000 1.63769
11875.000 1.63709
11880.000 1.63649
11885.000 1.63590
11890.000 1.63530
11895.000 1.63470
11900.000 1.63411
11905.000 1.63351
11910.000 1.63292
11915.000 1.63232
11920.000 1.63173
11925.000 1.63113
11930.000 1.63053
11935.000 1.62994
11940.000 1.62934
11945.000 1.62875
11950.000 1.62816
11955.000 1.62756
11960.000 1.62697
11965.000 1.62637
11970.000 1.62578
11975.000 1.62518
11980.000 1.62459
11985.000 1.62399
11990.000 1.62340
11995.000 1.62281
12000.000 1.62221
12005.000 1.62162
12010.000 1.62102
12015.000 1.62043
12020.000 1.61984
12025.000 1.61924
12030.000 1.61865
12035.000 1.61805
12040.000 1.61746
12045.000 1.61687
12050.000 1.61627
12055.000 1.61568
12060.000 1.61508
12065.000 1.61449
12070.000 1.61389
12075.000 1.61330
12080.000 1.61271
12085.000 1.61211
12090.000 1.61152
12095.000 1.61092
12100.000 1.61033
12105.000 1.60973
12110.000 1.60914
12115.000 1.60854
12120.000 1.60795
12125.000 1.60735
12130.000 1.60676
12135.000 1.60616
12140.000 1.60557
12145.000 1.60497
12150.000 1.60438
12155.000 1.60378
12160.000 1.60318
12165.000 1.60259
12170.000 1.60199
12175.000 1.60140
12180.000 1.60080
12185.000 1.60020
12190.000 1.59960
12195.000 1.59901
12200.000 1.59841
12205.000 1.59781
12210.000 1.59721
12215.000 1.59662
12220.000 1.59602
12225.000 1.59542
12230.000 1.59482
12235.000 1.59422
12240.000 1.59362
12245.000 1.59302
12250.000 1.59242
12255.000 1.59182
12260.000 1.59122
12265.000 1.59062
12270.000 1.59002
12275.000 1.58942
12280.000 1.58882
12285.000 1.58822
12290.000 1.58762
12295.000 1.58701
12300.000 1.58641
12305.000 1.58581
12310.000 1.58521
12315.000 1.58461
12320.000 1.58400
12325.000 1.58340
12330.000 1.58280
12335.000 1.58219
12340.000 1.58159
12345.000 1.58099
12350.000 1.58038
12355.000 1.57978
12360.000 1.57917
12365.000 1.57857
12370.000 1.57796
12375.000 1.57736
12380.000 1.57675
12385.000 1.57615
12390.000 1.57554
12395.000 1.57494
12400.000 1.57433
12405.000 1.57372
12410.000 1.57312
12415.000 1.57251
12420.000 1.57190
12425.000 1.57129
12430.000 1.57069
12435.000 1.57008
12440.000 1.56947
12445.000 1.56886
12450.000 1.56825
12455.000 1.56765
12460.000 1.56704
12465.000 1.56643
12470.000 1.56582
12475.000 1.56521
12480.000 1.56460
12485.000 1.56399
12490.000 1.56338
12495.000 1.56277
12500.000 1.56216
12505.000 1.56155
12510.000 1.56094
12515.000 1.56033
12520.000 1.55972
12525.000 1.55911
12530.000 1.55849
12535.000 1.55788
12540.000 1.55727
12545.000 1.55666
12550.000 1.55605
12555.000 1.55543
12560.000 1.55482
12565.000 1.55421
12570.000 1.55360
12575.000 1.55298
12580.000 1.55237
12585.000 1.55175
12590.000 1.55114
12595.000 1.55053
12600.000 1.54991
12605.000 1.54930
12610.000 1.54868
12615.000 1.54807
12620.000 1.54745
12625.000 1.54684
12630.000 1.54622
12635.000 1.54561
12640.000 1.54499
12645.000 1.54437
12650.000 1.54376
12655.000 1.54314
12660.000 1.54252
12665.000 1.54191
12670.000 1.54129
12675.000 1.54067
12680.000 1.54006
12685.000 1.53944
12690.000 1.53882
12695.000 1.53820
12700.000 1.53758
12705.000 1.53697
12710.000 1.53635
12715.000 1.53573
12720.000 1.53511
12725.000 1.53449
12730.000 1.53387
12735.000 1.53325
12740.000 1.53263
12745.000 1.53201
12750.000 1.53139
12755.000 1.53077
12760.000 1.53015
12765.000 1.52953
12770.000 1.52891
12775.000 1.52829
12780.000 1.52767
12785.000 1.52705
12790.000 1.52642
12795.000 1.52580
12800.000 1.52518
12805.000 1.52456
12810.000 1.52394
12815.000 1.52332
12820.000 1.52269
12825.000 1.52207
12830.000 1.52145
12835.000 1.52082
12840.000 1.52020
12845.000 1.51958
12850.000 1.51895
12855.000 1.51833
12860.000 1.51771
12865.000 1.51708
12870.000 1.51646
12875.000 1.51583
12880.000 1.51521
12885.000 1.51458
12890.000 1.51396
12895.000 1.51333
12900.000 1.51271
12905.000 1.51208
12910.000 1.51146
12915.000 1.51083
12920.000 1.51020
12925.000 1.50958
12930.000 1.50895
12935.000 1.50832
12940.000 1.50770
12945.000 1.50707
12950.000 1.50644
12955.000 1.50582
12960.000 1.50519
12965.000 1.50456
12970.000 1.50393
12975.000 1.50331
12980.000 1.50268
12985.000 1.50205
12990.000 1.50142
12995.000 1.50079
13000.000 1.50016
13005.000 1.49953
13010.000 1.49890
13015.000 1.49828
13020.000 1.49765
13025.000 1.49702
13030.000 1.49639
13035.000 1.49576
13040.000 1.49513
13045.000 1.49450
13050.000 1.49387
13055.000 1.49324
13060.000 1.49261
13065.000 1.49197
13070.000 1.49134
13075.000 1.49071
13080.000 1.49008
13085.000 1.48945
13090.000 1.48882
13095.000 1.48819
13100.000 1.48755
13105.000 1.48692
13110.000 1.48629
13115.000 1.48566
13120.000 1.48502
13125.000 1.48439
13130.000 1.48376
13135.000 1.48312
13140.000 1.48249
13145.000 1.48186
13150.000 1.48122
13155.000 1.48059
13160.000 1.47996
13165.000 1.47932
13170.000 1.47869
13175.000 1.47805
13180.000 1.47742
13185.000 1.47678
13190.000 1.47615
13195.000 1.47551
13200.000 1.47488
13205.000 1.47424
13210.000 1.47361
13215.000 1.47297
13220.000 1.47234
13225.000 1.47170
13230.000 1.47106
13235.000 1.47043
13240.000 1.46979
13245.000 1.46916
13250.000 1.46852
13255.000 1.46788
13260.000 1.46725
13265.000 1.46661
13270.000 1.46597
13275.000 1.46533
13280.000 1.46470
13285.000 1.46406
13290.000 1.46342
13295.000 1.46278
13300.000 1.46214
13305.000 1.46151
13310.000 1.46087
13315.000 1.46023
13320.000 1.45959
13325.000 1.45895
13330.000 1.45831
13335.000 1.45767
13340.000 1.45704
13345.000 1.45640
13350.000 1.45576
13355.000 1.45512
13360.000 1.45448
13365.000 1.45384
13370.000 1.45320
13375.000 1.45256
13380.000 1.45192
13385.000 1.45128
13390.000 1.45064
13395.000 1.44999
13400.000 1.44935
13405.000 1.44871
13410.000 1.44807
13415.000 1.44743
13420.000 1.44679
13425.000 1.44615
13430.000 1.44550
13435.000 1.44486
13440.000 1.44422
13445.000 1.44358
13450.000 1.44294
13455.000 1.44229
13460.000 1.44165
13465.000 1.44101
13470.000 1.44037
13475.000 1.43972
13480.000 1.43908
13485.000 1.43844
13490.000 1.43779
13495.000 1.43715
13500.000 1.43651
13505.000 1.43586
13510.000 1.43522
13515.000 1.43458
13520.000 1.43393
13525.000 1.43329
13530.000 1.43264
13535.000 1.43200
13540.000 1.43135
13545.000 1.43071
13550.000 1.43006
13555.000 1.42942
13560.000 1.42877
13565.000 1.42813
13570.000 1.42748
13575.000 1.42684
13580.000 1.42619
13585.000 1.42555
13590.000 1.42490
13595.000 1.42426
13600.000 1.42361
13605.000 1.42296
13610.000 1.42232
13615.000 1.42167
13620.000 1.42102
13625.000 1.42038
13630.000 1.41973
13635.000 1.41908
13640.000 1.41844
13645.000 1.41779
13650.000 1.41714
13655.000 1.41649
13660.000 1.41585
13665.000 1.41520
13670.000 1.41455
13675.000 1.41390
13680.000 1.41326
13685.000 1.41261
13690.000 1.41196
13695.000 1.41131
13700.000 1.41066
13705.000 1.41001
13710.000 1.40936
13715.000 1.40872
13720.000 1.40807
13725.000 1.40742
13730.000 1.40677
13735.000 1.40612
13740.000 1.40547
13745.000 1.40482
13750.000 1.40417
13755.000 1.40352
13760.000 1.40287
13765.000 1.40222
13770.000 1.40157
13775.000 1.40092
13780.000 1.40027
13785.000 1.39962
13790.000 1.39897
13795.000 1.39832
13800.000 1.39767
13805.000 1.39702
13810.000 1.39637
13815.000 1.39572
13820.000 1.39507
13825.000 1.39441
13830.000 1.39376
13835.000 1.39311
13840.000 1.39246
13845.000 1.39181
13850.000 1.39116
13855.000 1.39051
13860.000 1.38985
13865.000 1.38920
13870.000 1.38855
13875.000 1.38790
13880.000 1.38725
13885.000 1.38659
13890.000 1.38594
13895.000 1.38529
13900.000 1.38464
13905.000 1.38398
13910.000 1.38333
13915.000 1.38268
13920.000 1.38202
13925.000 1.38137
13930.000 1.38072
13935.000 1.38006
13940.000 1.37941
13945.000 1.37876
13950.000 1.37810
13955.000 1.37745
13960.000 1.37680
13965.000 1.37614
13970.000 1.37549
13975.000 1.37483
13980.000 1.37418
13985.000 1.37352
13990.000 1.37287
13995.000 1.37221
14000.000 1.37156
14005.000 1.37091
14010.000 1.37025
14015.000 1.36960
14020.000 1.36894
14025.000 1.36829
14030.000 1.36763
14035.000 1.36698
14040.000 1.36632
14045.000 1.36566
14050.000 1.36501
14055.000 1.36435
14060.000 1.36370
14065.000 1.36304
14070.000 1.36239
14075.000 1.36173
14080.000 1.36107
14085.000 1.36042
14090.000 1.35976
14095.000 1.35911
14100.000 1.35845
14105.000 1.35779
14110.000 1.35714
14115.000 1.35648
14120.000 1.35582
14125.000 1.35517
14130.000 1.35451
14135.000 1.35385
14140.000 1.35319
14145.000 1.35254
14150.000 1.35188
14155.000 1.35122
14160.000 1.35057
14165.000 1.34991
14170.000 1.34925
14175.000 1.34859
14180.000 1.34793
14185.000 1.34728
14190.000 1.34662
14195.000 1.34596
14200.000 1.34530
14205.000 1.34465
14210.000 1.34399
14215.000 1.34333
14220.000 1.34267
14225.000 1.34201
14230.000 1.34135
14235.000 1.34070
14240.000 1.34004
14245.000 1.33938
14250.000 1.33872
14255.000 1.33806
14260.000 1.33740
14265.000 1.33674
14270.000 1.33608
14275.000 1.33542
14280.000 1.33477
14285.000 1.33411
14290.000 1.33345
14295.000 1.33279
14300.000 1.33213
14305.000 1.33147
14310.000 1.33081
14315.000 1.33015
14320.000 1.32949
14325.000 1.32883
14330.000 1.32817
14335.000 1.32751
14340.000 1.32685
14345.000 1.32619
14350.000 1.32553
14355.000 1.32487
14360.000 1.32421
14365.000 1.32355
14370.000 1.32289
14375.000 1.32223
14380.000 1.32157
14385.000 1.32091
14390.000 1.32025
14395.000 1.31958
14400.000 1.31892
14405.000 1.31826
14410.000 1.31760
14415.000 1.31694
14420.000 1.31628
14425.000 1.31562
14430.000 1.31496
14435.000 1.31430
14440.000 1.31364
14445.000 1.31297
14450.000 1.31231
14455.000 1.31165
14460.000 1.31099
14465.000 1.31033
14470.000 1.30966
14475.000 1.30900
14480.000 1.30834
14485.000 1.30768
14490.000 1.30702
14495.000 1.30636
14500.000 1.30569
14505.000 1.30503
14510.000 1.30437
14515.000 1.30371
14520.000 1.30305
14525.000 1.30238
14530.000 1.30172
14535.000 1.30106
14540.000 1.30040
14545.000 1.29973
14550.000 1.29907
14555.000 1.29841
14560.000 1.29775
14565.000 1.29708
14570.000 1.29642
14575.000 1.29576
14580.000 1.29510
14585.000 1.29443
14590.000 1.29377
14595.000 1.29311
14600.000 1.29244
14605.000 1.29178
14610.000 1.29112
14615.000 1.29045
14620.000 1.28979
14625.000 1.28913
14630.000 1.28846
14635.000 1.28780
14640.000 1.28714
14645.000 1.28647
14650.000 1.28581
14655.000 1.28515
14660.000 1.28448
14665.000 1.28382
14670.000 1.28316
14675.000 1.28249
14680.000 1.28183
14685.000 1.28116
14690.000 1.28050
14695.000 1.27984
14700.000 1.27917
14705.000 1.27851
14710.000 1.27785
14715.000 1.27718
14720.000 1.27652
14725.000 1.27585
14730.000 1.27519
14735.000 1.27452
14740.000 1.27386
14745.000 1.27320
14750.000 1.27253
14755.000 1.27187
14760.000 1.27120
14765.000 1.27054
14770.000 1.26987
14775.000 1.26921
14780.000 1.26854
14785.000 1.26788
14790.000 1.26722
14795.000 1.26655
14800.000 1.26589
14805.000 1.26522
14810.000 1.26456
14815.000 1.26389
14820.000 1.26323
14825.000 1.26256
14830.000 1.26190
14835.000 1.26123
14840.000 1.26057
14845.000 1.25990
14850.000 1.25924
14855.000 1.25857
14860.000 1.25791
14865.000 1.25724
14870.000 1.25658
14875.000 1.25591
14880.000 1.25525
14885.000 1.25458
14890.000 1.25392
14895.000 1.25325
14900.000 1.25259
14905.000 1.25192
14910.000 1.25126
14915.000 1.25059
14920.000 1.24993
14925.000 1.24926
14930.000 1.24860
14935.000 1.24793
14940.000 1.24726
14945.000 1.24660
14950.000 1.24593
14955.000 1.24527
14960.000 1.24460
14965.000 1.24394
14970.000 1.24327
14975.000 1.24261
14980.000 1.24194
14985.000 1.24127
14990.000 1.24061
14995.000 1.23994
15000.000 1.23928
15005.000 1.23861
15010.000 1.23795
15015.000 1.23728
15020.000 1.23661
15025.000 1.23595
15030.000 1.23528
15035.000 1.23462
15040.000 1.23395
15045.000 1.23329
15050.000 1.23262
15055.000 1.23195
15060.000 1.23129
15065.000 1.23062
15070.000 1.22996
15075.000 1.22929
15080.000 1.22862
15085.000 1.22796
15090.000 1.22729
15095.000 1.22663
15100.000 1.22596
15105.000 1.22529
15110.000 1.22463
15115.000 1.22396
15120.000 1.22330
15125.000 1.22263
15130.000 1.22196
15135.000 1.22130
15140.000 1.22063
15145.000 1.21997
15150.000 1.21930
15155.000 1.21863
15160.000 1.21797
15165.000 1.21730
15170.000 1.21664
15175.000 1.21597
15180.000 1.21530
15185.000 1.21464
15190.000 1.21397
15195.000 1.21330
15200.000 1.21264
15205.000 1.21197
15210.000 1.21131
15215.000 1.21064
15220.000 1.20997
15225.000 1.20931
15230.000 1.20864
15235.000 1.20797
15240.000 1.20731
15245.000 1.20664
15250.000 1.20598
15255.000 1.20531
15260.000 1.20464
15265.000 1.20398
15270.000 1.20331
15275.000 1.20265
15280.000 1.20198
15285.000 1.20131
15290.000 1.20065
15295.000 1.19998
15300.000 1.19932
15305.000 1.19865
15310.000 1.19798
15315.000 1.19732
15320.000 1.19665
15325.000 1.19599
15330.000 1.19532
15335.000 1.19465
15340.000 1.19399
15345.000 1.19332
15350.000 1.19266
15355.000 1.19199
15360.000 1.19132
15365.000 1.19066
15370.000 1.18999
15375.000 1.18932
15380.000 1.18866
15385.000 1.18799
15390.000 1.18733
15395.000 1.18666
15400.000 1.18599
15405.000 1.18533
15410.000 1.18466
15415.000 1.18400
15420.000 1.18333
15425.000 1.18266
15430.000 1.18200
15435.000 1.18133
15440.000 1.18067
15445.000 1.18000
15450.000 1.17934
15455.000 1.17867
15460.000 1.17800
15465.000 1.17734
15470.000 1.17667
15475.000 1.17601
15480.000 1.17534
15485.000 1.17468
15490.000 1.17401
15495.000 1.17334
15500.000 1.17268
15505.000 1.17201
15510.000 1.17135
15515.000 1.17068
15520.000 1.17002
15525.000 1.16935
15530.000 1.16868
15535.000 1.16802
15540.000 1.16735
15545.000 1.16669
15550.000 1.16602
15555.000 1.16536
15560.000 1.16469
15565.000 1.16403
15570.000 1.16336
15575.000 1.16269
15580.000 1.16203
15585.000 1.16136
15590.000 1.16070
15595.000 1.16003
15600.000 1.15937
15605.000 1.15870
15610.000 1.15804
15615.000 1.15737
15620.000 1.15671
15625.000 1.15604
15630.000 1.15538
15635.000 1.15471
15640.000 1.15405
15645.000 1.15338
15650.000 1.15272
15655.000 1.15205
15660.000 1.15139
15665.000 1.15072
15670.000 1.15006
15675.000 1.14939
15680.000 1.14873
15685.000 1.14806
15690.000 1.14740
15695.000 1.14673
15700.000 1.14607
15705.000 1.14540
15710.000 1.14474
15715.000 1.14408
15720.000 1.14341
15725.000 1.14275
15730.000 1.14208
15735.000 1.14142
15740.000 1.14075
15745.000 1.14009
15750.000 1.13943
15755.000 1.13876
15760.000 1.13810
15765.000 1.13743
15770.000 1.13677
15775.000 1.13611
15780.000 1.13544
15785.000 1.13478
15790.000 1.13411
15795.000 1.13345
15800.000 1.13278
15805.000 1.13212
15810.000 1.13146
15815.000 1.13079
15820.000 1.13013
15825.000 1.12947
15830.000 1.12880
15835.000 1.12814
15840.000 1.12747
15845.000 1.12681
15850.000 1.12615
15855.000 1.12548
15860.000 1.12482
15865.000 1.12416
15870.000 1.12349
15875.000 1.12283
15880.000 1.12217
15885.000 1.12151
15890.000 1.12084
15895.000 1.12018
15900.000 1.11952
15905.000 1.11885
15910.000 1.11819
15915.000 1.11753
15920.000 1.11686
15925.000 1.11620
15930.000 1.11554
15935.000 1.11488
15940.000 1.11421
15945.000 1.11355
15950.000 1.11289
15955.000 1.11223
15960.000 1.11156
15965.000 1.11090
15970.000 1.11024
15975.000 1.10958
15980.000 1.10891
15985.000 1.10825
15990.000 1.10759
15995.000 1.10693
16000.000 1.10627
16005.000 1.10560
16010.000 1.10494
16015.000 1.10428
16020.000 1.10362
16025.000 1.10296
16030.000 1.10230
16035.000 1.10163
16040.000 1.10097
16045.000 1.10031
16050.000 1.09965
16055.000 1.09899
16060.000 1.09833
16065.000 1.09767
16070.000 1.09700
16075.000 1.09634
16080.000 1.09568
16085.000 1.09502
16090.000 1.09436
16095.000 1.09370
16100.000 1.09304
16105.000 1.09238
16110.000 1.09172
16115.000 1.09106
16120.000 1.09040
16125.000 1.08974
16130.000 1.08907
16135.000 1.08842
16140.000 1.08775
16145.000 1.08709
16150.000 1.08643
16155.000 1.08577
16160.000 1.08511
16165.000 1.08445
16170.000 1.08379
16175.000 1.08313
16180.000 1.08247
16185.000 1.08182
16190.000 1.08116
16195.000 1.08050
16200.000 1.07984
16205.000 1.07918
16210.000 1.07852
16215.000 1.07786
16220.000 1.07720
16225.000 1.07654
16230.000 1.07588
16235.000 1.07522
16240.000 1.07456
16245.000 1.07390
16250.000 1.07325
16255.000 1.07259
16260.000 1.07193
16265.000 1.07127
16270.000 1.07061
16275.000 1.06995
16280.000 1.06929
16285.000 1.06864
16290.000 1.06798
16295.000 1.06732
16300.000 1.06666
16305.000 1.06600
16310.000 1.06535
16315.000 1.06469
16320.000 1.06403
16325.000 1.06337
16330.000 1.06272
16335.000 1.06206
16340.000 1.06140
16345.000 1.06074
16350.000 1.06009
16355.000 1.05943
16360.000 1.05877
16365.000 1.05812
16370.000 1.05746
16375.000 1.05680
16380.000 1.05615
16385.000 1.05549
16390.000 1.05483
16395.000 1.05418
16400.000 1.05352
16405.000 1.05286
16410.000 1.05221
16415.000 1.05155
16420.000 1.05089
16425.000 1.05024
16430.000 1.04958
16435.000 1.04893
16440.000 1.04827
16445.000 1.04762
16450.000 1.04696
16455.000 1.04630
16460.000 1.04565
16465.000 1.04499
16470.000 1.04434
16475.000 1.04368
16480.000 1.04303
16485.000 1.04237
16490.000 1.04172
16495.000 1.04106
16500.000 1.04041
16505.000 1.03975
16510.000 1.03910
16515.000 1.03845
16520.000 1.03779
16525.000 1.03714
16530.000 1.03648
16535.000 1.03583
16540.000 1.03518
16545.000 1.03452
16550.000 1.03387
16555.000 1.03321
16560.000 1.03256
16565.000 1.03191
16570.000 1.03125
16575.000 1.03060
16580.000 1.02995
16585.000 1.02929
16590.000 1.02864
16595.000 1.02799
16600.000 1.02734
16605.000 1.02668
16610.000 1.02603
16615.000 1.02538
16620.000 1.02472
16625.000 1.02407
16630.000 1.02342
16635.000 1.02277
16640.000 1.02211
16645.000 1.02146
16650.000 1.02081
16655.000 1.02016
16660.000 1.01951
16665.000 1.01886
16670.000 1.01820
16675.000 1.01755
16680.000 1.01690
16685.000 1.01625
16690.000 1.01560
16695.000 1.01495
16700.000 1.01430
16705.000 1.01365
16710.000 1.01300
16715.000 1.01235
16720.000 1.01169
16725.000 1.01104
16730.000 1.01039
16735.000 1.00974
16740.000 1.00909
16745.000 1.00844
16750.000 1.00779
16755.000 1.00714
16760.000 1.00649
16765.000 1.00584
16770.000 1.00519
16775.000 1.00454
16780.000 1.00390
16785.000 1.00324
16790.000 1.00260
16795.000 1.00195
16800.000 1.00130
16805.000 1.00065
16810.000 1.00000
16815.000 0.99935
16820.000 0.99870
16825.000 0.99805
16830.000 0.99741
16835.000 0.99676
16840.000 0.99611
16845.000 0.99546
16850.000 0.99481
16855.000 0.99417
16860.000 0.99352
16865.000 0.99287
16870.000 0.99222
16875.000 0.99158
16880.000 0.99093
16885.000 0.99028
16890.000 0.98963
16895.000 0.98899
16900.000 0.98834
16905.000 0.98769
16910.000 0.98705
16915.000 0.98640
16920.000 0.98575
16925.000 0.98511
16930.000 0.98446
16935.000 0.98381
16940.000 0.98317
16945.000 0.98252
16950.000 0.98188
16955.000 0.98123
16960.000 0.98059
16965.000 0.97994
16970.000 0.97929
16975.000 0.97865
16980.000 0.97800
16985.000 0.97736
16990.000 0.97671
16995.000 0.97607
17000.000 0.97543
17005.000 0.97478
17010.000 0.97414
17015.000 0.97349
17020.000 0.97285
17025.000 0.97220
17030.000 0.97156
17035.000 0.97091
17040.000 0.97027
17045.000 0.96963
17050.000 0.96898
17055.000 0.96834
17060.000 0.96770
17065.000 0.96705
17070.000 0.96641
17075.000 0.96577
17080.000 0.96512
17085.000 0.96448
17090.000 0.96384
17095.000 0.96320
17100.000 0.96255
17105.000 0.96191
17110.000 0.96127
17115.000 0.96063
17120.000 0.95999
17125.000 0.95934
17130.000 0.95870
17135.000 0.95806
17140.000 0.95742
17145.000 0.95678
17150.000 0.95613
17155.000 0.95549
17160.000 0.95485
17165.000 0.95421
17170.000 0.95357
17175.000 0.95293
17180.000 0.95229
17185.000 0.95165
17190.000 0.95101
17195.000 0.95037
17200.000 0.94973
17205.000 0.94909
17210.000 0.94845
17215.000 0.94781
17220.000 0.94717
17225.000 0.94653
17230.000 0.94589
17235.000 0.94525
17240.000 0.94461
17245.000 0.94397
17250.000 0.94333
17255.000 0.94270
17260.000 0.94206
17265.000 0.94142
17270.000 0.94078
17275.000 0.94014
17280.000 0.93950
17285.000 0.93887
17290.000 0.93823
17295.000 0.93759
17300.000 0.93695
17305.000 0.93632
17310.000 0.93568
17315.000 0.93504
17320.000 0.93440
17325.000 0.93377
17330.000 0.93313
17335.000 0.93249
17340.000 0.93186
17345.000 0.93122
17350.000 0.93058
17355.000 0.92995
17360.000 0.92931
17365.000 0.92868
17370.000 0.92804
17375.000 0.92740
17380.000 0.92677
17385.000 0.92613
17390.000 0.92550
17395.000 0.92486
17400.000 0.92423
17405.000 0.92359
17410.000 0.92296
17415.000 0.92232
17420.000 0.92169
17425.000 0.92105
17430.000 0.92042
17435.000 0.91978
17440.000 0.91915
17445.000 0.91852
17450.000 0.91788
17455.000 0.91725
17460.000 0.91661
17465.000 0.91598
17470.000 0.91535
17475.000 0.91472
17480.000 0.91408
17485.000 0.91345
17490.000 0.91282
17495.000 0.91218
17500.000 0.91155
17505.000 0.91092
17510.000 0.91029
17515.000 0.90966
17520.000 0.90902
17525.000 0.90839
17530.000 0.90776
17535.000 0.90713
17540.000 0.90650
17545.000 0.90587
17550.000 0.90523
17555.000 0.90460
17560.000 0.90397
17565.000 0.90334
17570.000 0.90271
17575.000 0.90208
17580.000 0.90145
17585.000 0.90082
17590.000 0.90019
17595.000 0.89956
17600.000 0.89893
17605.000 0.89830
17610.000 0.89767
17615.000 0.89704
17620.000 0.89641
17625.000 0.89578
17630.000 0.89516
17635.000 0.89453
17640.000 0.89390
17645.000 0.89327
17650.000 0.89264
17655.000 0.89201
17660.000 0.89139
17665.000 0.89076
17670.000 0.89013
17675.000 0.88950
17680.000 0.88888
17685.000 0.88825
17690.000 0.88762
17695.000 0.88699
17700.000 0.88637
17705.000 0.88574
17710.000 0.88511
17715.000 0.88449
17720.000 0.88386
17725.000 0.88323
17730.000 0.88261
17735.000 0.88198
17740.000 0.88136
17745.000 0.88073
17750.000 0.88011
17755.000 0.87948
17760.000 0.87886
17765.000 0.87823
17770.000 0.87761
17775.000 0.87698
17780.000 0.87636
17785.000 0.87573
17790.000 0.87511
17795.000 0.87448
17800.000 0.87386
17805.000 0.87324
17810.000 0.87261
17815.000 0.87199
17820.000 0.87137
17825.000 0.87074
17830.000 0.87012
17835.000 0.86950
17840.000 0.86887
17845.000 0.86825
17850.000 0.86763
17855.000 0.86701
17860.000 0.86638
17865.000 0.86576
17870.000 0.86514
17875.000 0.86452
17880.000 0.86390
17885.000 0.86328
17890.000 0.86265
17895.000 0.86203
17900.000 0.86141
17905.000 0.86079
17910.000 0.86017
17915.000 0.85955
17920.000 0.85893
17925.000 0.85831
17930.000 0.85769
17935.000 0.85707
17940.000 0.85645
17945.000 0.85583
17950.000 0.85521
17955.000 0.85459
17960.000 0.85397
17965.000 0.85336
17970.000 0.85274
17975.000 0.85212
17980.000 0.85150
17985.000 0.85088
17990.000 0.85026
17995.000 0.84964
18000.000 0.84903
18005.000 0.84841
18010.000 0.84779
18015.000 0.84717
18020.000 0.84656
18025.000 0.84594
18030.000 0.84532
18035.000 0.84471
18040.000 0.84409
18045.000 0.84347
18050.000 0.84286
18055.000 0.84224
18060.000 0.84163
18065.000 0.84101
18070.000 0.84039
18075.000 0.83978
18080.000 0.83916
18085.000 0.83855
18090.000 0.83793
18095.000 0.83732
18100.000 0.83670
18105.000 0.83609
18110.000 0.83548
18115.000 0.83486
18120.000 0.83425
18125.000 0.83363
18130.000 0.83302
18135.000 0.83241
18140.000 0.83179
18145.000 0.83118
18150.000 0.83057
18155.000 0.82995
18160.000 0.82934
18165.000 0.82873
18170.000 0.82812
18175.000 0.82750
18180.000 0.82689
18185.000 0.82628
18190.000 0.82567
18195.000 0.82506
18200.000 0.82445
18205.000 0.82384
18210.000 0.82322
18215.000 0.82261
18220.000 0.82200
18225.000 0.82139
18230.000 0.82078
18235.000 0.82017
18240.000 0.81956
18245.000 0.81895
18250.000 0.81834
18255.000 0.81773
18260.000 0.81712
18265.000 0.81651
18270.000 0.81591
18275.000 0.81530
18280.000 0.81469
18285.000 0.81408
18290.000 0.81347
18295.000 0.81286
18300.000 0.81226
18305.000 0.81165
18310.000 0.81104
18315.000 0.81043
18320.000 0.80983
18325.000 0.80922
18330.000 0.80861
18335.000 0.80801
18340.000 0.80740
18345.000 0.80679
18350.000 0.80619
18355.000 0.80558
18360.000 0.80497
18365.000 0.80437
18370.000 0.80376
18375.000 0.80316
18380.000 0.80255
18385.000 0.80195
18390.000 0.80134
18395.000 0.80074
18400.000 0.80013
18405.000 0.79953
18410.000 0.79893
18415.000 0.79832
18420.000 0.79772
18425.000 0.79711
18430.000 0.79651
18435.000 0.79591
18440.000 0.79531
18445.000 0.79470
18450.000 0.79410
18455.000 0.79350
18460.000 0.79290
18465.000 0.79229
18470.000 0.79169
18475.000 0.79109
18480.000 0.79049
18485.000 0.78989
18490.000 0.78929
18495.000 0.78868
18500.000 0.78808
18505.000 0.78748
18510.000 0.78688
18515.000 0.78628
18520.000 0.78568
18525.000 0.78508
18530.000 0.78448
18535.000 0.78388
18540.000 0.78328
18545.000 0.78268
18550.000 0.78209
18555.000 0.78149
18560.000 0.78089
18565.000 0.78029
18570.000 0.77969
18575.000 0.77909
18580.000 0.77849
18585.000 0.77790
18590.000 0.77730
18595.000 0.77670
18600.000 0.77611
18605.000 0.77551
18610.000 0.77491
18615.000 0.77432
18620.000 0.77372
18625.000 0.77312
18630.000 0.77253
18635.000 0.77193
18640.000 0.77134
18645.000 0.77074
18650.000 0.77014
18655.000 0.76955
18660.000 0.76896
18665.000 0.76836
18670.000 0.76777
18675.000 0.76717
18680.000 0.76658
18685.000 0.76598
18690.000 0.76539
18695.000 0.76480
18700.000 0.76420
18705.000 0.76361
18710.000 0.76302
18715.000 0.76242
18720.000 0.76183
18725.000 0.76124
18730.000 0.76065
18735.000 0.76005
18740.000 0.75946
18745.000 0.75887
18750.000 0.75828
18755.000 0.75769
18760.000 0.75710
18765.000 0.75651
18770.000 0.75591
18775.000 0.75532
18780.000 0.75473
18785.000 0.75414
18790.000 0.75355
18795.000 0.75296
18800.000 0.75237
18805.000 0.75179
18810.000 0.75120
18815.000 0.75061
18820.000 0.75002
18825.000 0.74943
18830.000 0.74884
18835.000 0.74825
18840.000 0.74767
18845.000 0.74708
18850.000 0.74649
18855.000 0.74590
18860.000 0.74532
18865.000 0.74473
18870.000 0.74414
18875.000 0.74356
18880.000 0.74297
18885.000 0.74238
18890.000 0.74180
18895.000 0.74121
18900.000 0.74063
18905.000 0.74004
18910.000 0.73946
18915.000 0.73887
18920.000 0.73829
18925.000 0.73770
18930.000 0.73712
18935.000 0.73653
18940.000 0.73595
18945.000 0.73537
18950.000 0.73478
18955.000 0.73420
18960.000 0.73362
18965.000 0.73303
18970.000 0.73245
18975.000 0.73187
18980.000 0.73128
18985.000 0.73070
18990.000 0.73012
18995.000 0.72954
19000.000 0.72896
19005.000 0.72838
19010.000 0.72780
19015.000 0.72721
19020.000 0.72663
19025.000 0.72605
19030.000 0.72547
19035.000 0.72489
19040.000 0.72431
19045.000 0.72373
19050.000 0.72315
19055.000 0.72257
19060.000 0.72200
19065.000 0.72142
19070.000 0.72084
19075.000 0.72026
19080.000 0.71968
19085.000 0.71910
19090.000 0.71853
19095.000 0.71795
19100.000 0.71737
19105.000 0.71679
19110.000 0.71622
19115.000 0.71564
19120.000 0.71506
19125.000 0.71449
19130.000 0.71391
19135.000 0.71334
19140.000 0.71276
19145.000 0.71219
19150.000 0.71161
19155.000 0.71103
19160.000 0.71046
19165.000 0.70989
19170.000 0.70931
19175.000 0.70874
19180.000 0.70816
19185.000 0.70759
19190.000 0.70702
19195.000 0.70644
19200.000 0.70587
19205.000 0.70530
19210.000 0.70472
19215.000 0.70415
19220.000 0.70358
19225.000 0.70301
19230.000 0.70244
19235.000 0.70186
19240.000 0.70129
19245.000 0.70072
19250.000 0.70015
19255.000 0.69958
19260.000 0.69901
19265.000 0.69844
19270.000 0.69787
19275.000 0.69730
19280.000 0.69673
19285.000 0.69616
19290.000 0.69559
19295.000 0.69502
19300.000 0.69445
19305.000 0.69389
19310.000 0.69332
19315.000 0.69275
19320.000 0.69218
19325.000 0.69161
19330.000 0.69104
19335.000 0.69048
19340.000 0.68991
19345.000 0.68934
19350.000 0.68878
19355.000 0.68821
19360.000 0.68765
19365.000 0.68708
19370.000 0.68651
19375.000 0.68595
19380.000 0.68538
19385.000 0.68482
19390.000 0.68425
19395.000 0.68369
19400.000 0.68312
19405.000 0.68256
19410.000 0.68200
19415.000 0.68143
19420.000 0.68087
19425.000 0.68031
19430.000 0.67974
19435.000 0.67918
19440.000 0.67862
19445.000 0.67806
19450.000 0.67749
19455.000 0.67693
19460.000 0.67637
19465.000 0.67581
19470.000 0.67525
19475.000 0.67469
19480.000 0.67412
19485.000 0.67357
19490.000 0.67300
19495.000 0.67245
19500.000 0.67188
19505.000 0.67133
19510.000 0.67077
19515.000 0.67021
19520.000 0.66965
19525.000 0.66909
19530.000 0.66853
19535.000 0.66797
19540.000 0.66742
19545.000 0.66686
19550.000 0.66630
19555.000 0.66574
19560.000 0.66519
19565.000 0.66463
19570.000 0.66407
19575.000 0.66352
19580.000 0.66296
19585.000 0.66240
19590.000 0.66185
19595.000 0.66129
19600.000 0.66074
19605.000 0.66018
19610.000 0.65963
19615.000 0.65907
19620.000 0.65852
19625.000 0.65797
19630.000 0.65741
19635.000 0.65686
19640.000 0.65630
19645.000 0.65575
19650.000 0.65520
19655.000 0.65465
19660.000 0.65409
19665.000 0.65354
19670.000 0.65299
19675.000 0.65244
19680.000 0.65189
19685.000 0.65134
19690.000 0.65078
19695.000 0.65023
19700.000 0.64968
19705.000 0.64913
19710.000 0.64858
19715.000 0.64803
19720.000 0.64748
19725.000 0.64693
19730.000 0.64638
19735.000 0.64584
19740.000 0.64529
19745.000 0.64474
19750.000 0.64419
19755.000 0.64364
19760.000 0.64310
19765.000 0.64255
19770.000 0.64200
19775.000 0.64145
19780.000 0.64091
19785.000 0.64036
19790.000 0.63982
19795.000 0.63927
19800.000 0.63872
19805.000 0.63818
19810.000 0.63763
19815.000 0.63709
19820.000 0.63654
19825.000 0.63600
19830.000 0.63545
19835.000 0.63491
19840.000 0.63437
19845.000 0.63382
19850.000 0.63328
19855.000 0.63274
19860.000 0.63220
19865.000 0.63165
19870.000 0.63111
19875.000 0.63057
19880.000 0.63003
19885.000 0.62949
19890.000 0.62894
19895.000 0.62840
19900.000 0.62786
19905.000 0.62732
19910.000 0.62678
19915.000 0.62624
19920.000 0.62570
19925.000 0.62516
19930.000 0.62462
19935.000 0.62408
19940.000 0.62354
19945.000 0.62301
19950.000 0.62247
19955.000 0.62193
19960.000 0.62139
19965.000 0.62085
19970.000 0.62032
19975.000 0.61978
19980.000 0.61924
19985.000 0.61871
19990.000 0.61817
19995.000 0.61764
20000.000 0.61710
20005.000 0.61656
20010.000 0.61603
20015.000 0.61549
20020.000 0.61496
20025.000 0.61442
20030.000 0.61389
20035.000 0.61336
20040.000 0.61282
20045.000 0.61229
20050.000 0.61176
20055.000 0.61122
20060.000 0.61069
20065.000 0.61016
20070.000 0.60963
20075.000 0.60909
20080.000 0.60856
20085.000 0.60803
20090.000 0.60750
20095.000 0.60697
20100.000 0.60644
20105.000 0.60591
20110.000 0.60538
20115.000 0.60485
20120.000 0.60432
20125.000 0.60379
20130.000 0.60326
20135.000 0.60273
20140.000 0.60220
20145.000 0.60167
20150.000 0.60115
20155.000 0.60062
20160.000 0.60009
20165.000 0.59956
20170.000 0.59903
20175.000 0.59851
20180.000 0.59798
20185.000 0.59745
20190.000 0.59693
20195.000 0.59640
20200.000 0.59588
20205.000 0.59535
20210.000 0.59483
20215.000 0.59430
20220.000 0.59378
20225.000 0.59325
20230.000 0.59273
20235.000 0.59221
20240.000 0.59168
20245.000 0.59116
20250.000 0.59064
20255.000 0.59012
20260.000 0.58959
20265.000 0.58907
20270.000 0.58855
20275.000 0.58803
20280.000 0.58751
20285.000 0.58698
20290.000 0.58646
20295.000 0.58594
20300.000 0.58542
20305.000 0.58490
20310.000 0.58438
20315.000 0.58386
20320.000 0.58334
20325.000 0.58283
20330.000 0.58231
20335.000 0.58179
20340.000 0.58127
20345.000 0.58075
20350.000 0.58024
20355.000 0.57972
20360.000 0.57920
20365.000 0.57868
20370.000 0.57817
20375.000 0.57765
20380.000 0.57714
20385.000 0.57662
20390.000 0.57610
20395.000 0.57559
20400.000 0.57508
20405.000 0.57456
20410.000 0.57405
20415.000 0.57353
20420.000 0.57302
20425.000 0.57251
20430.000 0.57199
20435.000 0.57148
20440.000 0.57097
20445.000 0.57045
20450.000 0.56994
20455.000 0.56943
20460.000 0.56892
20465.000 0.56841
20470.000 0.56790
20475.000 0.56739
20480.000 0.56687
20485.000 0.56636
20490.000 0.56586
20495.000 0.56535
20500.000 0.56484
20505.000 0.56433
20510.000 0.56382
20515.000 0.56331
20520.000 0.56280
20525.000 0.56229
20530.000 0.56179
20535.000 0.56128
20540.000 0.56077
20545.000 0.56026
20550.000 0.55976
20555.000 0.55925
20560.000 0.55875
20565.000 0.55824
20570.000 0.55773
20575.000 0.55723
20580.000 0.55672
20585.000 0.55622
20590.000 0.55571
20595.000 0.55521
20600.000 0.55471
20605.000 0.55420
20610.000 0.55370
20615.000 0.55320
20620.000 0.55269
20625.000 0.55219
20630.000 0.55169
20635.000 0.55119
20640.000 0.55069
20645.000 0.55018
20650.000 0.54968
20655.000 0.54918
20660.000 0.54868
20665.000 0.54818
20670.000 0.54768
20675.000 0.54718
20680.000 0.54668
20685.000 0.54619
20690.000 0.54569
20695.000 0.54519
20700.000 0.54469
20705.000 0.54419
20710.000 0.54369
20715.000 0.54320
20720.000 0.54270
20725.000 0.54220
20730.000 0.54171
20735.000 0.54121
20740.000 0.54071
20745.000 0.54022
20750.000 0.53972
20755.000 0.53923
20760.000 0.53873
20765.000 0.53824
20770.000 0.53775
20775.000 0.53725
20780.000 0.53676
20785.000 0.53627
20790.000 0.53577
20795.000 0.53528
20800.000 0.53479
20805.000 0.53429
20810.000 0.53380
20815.000 0.53331
20820.000 0.53282
20825.000 0.53233
20830.000 0.53184
20835.000 0.53135
20840.000 0.53086
20845.000 0.53037
20850.000 0.52988
20855.000 0.52939
20860.000 0.52890
20865.000 0.52841
20870.000 0.52792
20875.000 0.52744
20880.000 0.52695
20885.000 0.52646
20890.000 0.52597
20895.000 0.52549
20900.000 0.52500
20905.000 0.52451
20910.000 0.52403
20915.000 0.52354
20920.000 0.52306
20925.000 0.52257
20930.000 0.52209
20935.000 0.52160
20940.000 0.52112
20945.000 0.52063
20950.000 0.52015
20955.000 0.51967
20960.000 0.51918
20965.000 0.51870
20970.000 0.51822
20975.000 0.51774
20980.000 0.51725
20985.000 0.51677
20990.000 0.51629
20995.000 0.51581
21000.000 0.51533
21005.000 0.51485
21010.000 0.51437
21015.000 0.51389
21020.000 0.51341
21025.000 0.51293
21030.000 0.51245
21035.000 0.51197
21040.000 0.51150
21045.000 0.51102
21050.000 0.51054
21055.000 0.51006
21060.000 0.50959
21065.000 0.50911
21070.000 0.50863
21075.000 0.50816
21080.000 0.50768
21085.000 0.50721
21090.000 0.50673
21095.000 0.50625
21100.000 0.50578
21105.000 0.50531
21110.000 0.50483
21115.000 0.50436
21120.000 0.50389
21125.000 0.50341
21130.000 0.50294
21135.000 0.50247
21140.000 0.50199
21145.000 0.50152
21150.000 0.50105
21155.000 0.50058
21160.000 0.50011
21165.000 0.49964
21170.000 0.49917
21175.000 0.49870
21180.000 0.49823
21185.000 0.49776
21190.000 0.49729
21195.000 0.49682
21200.000 0.49635
21205.000 0.49588
21210.000 0.49542
21215.000 0.49495
21220.000 0.49448
21225.000 0.49401
21230.000 0.49355
21235.000 0.49308
21240.000 0.49262
21245.000 0.49215
21250.000 0.49168
21255.000 0.49122
21260.000 0.49076
21265.000 0.49029
21270.000 0.48983
21275.000 0.48936
21280.000 0.48890
21285.000 0.48844
21290.000 0.48797
21295.000 0.48751
21300.000 0.48705
21305.000 0.48659
21310.000 0.48612
21315.000 0.48566
21320.000 0.48520
21325.000 0.48474
21330.000 0.48428
21335.000 0.48382
21340.000 0.48336
21345.000 0.48290
21350.000 0.48244
21355.000 0.48198
21360.000 0.48152
21365.000 0.48107
21370.000 0.48061
21375.000 0.48015
21380.000 0.47969
21385.000 0.47924
21390.000 0.47878
21395.000 0.47832
21400.000 0.47787
21405.000 0.47741
21410.000 0.47696
21415.000 0.47650
21420.000 0.47605
21425.000 0.47559
21430.000 0.47514
21435.000 0.47469
21440.000 0.47423
21445.000 0.47378
21450.000 0.47333
21455.000 0.47287
21460.000 0.47242
21465.000 0.47197
21470.000 0.47152
21475.000 0.47107
21480.000 0.47062
21485.000 0.47017
21490.000 0.46972
21495.000 0.46927
21500.000 0.46882
21505.000 0.46837
21510.000 0.46792
21515.000 0.46747
21520.000 0.46702
21525.000 0.46657
21530.000 0.46613
21535.000 0.46568
21540.000 0.46523
21545.000 0.46479
21550.000 0.46434
21555.000 0.46389
21560.000 0.46345
21565.000 0.46300
21570.000 0.46256
21575.000 0.46211
21580.000 0.46167
21585.000 0.46122
21590.000 0.46078
21595.000 0.46034
21600.000 0.45989
21605.000 0.45945
21610.000 0.45901
21615.000 0.45857
21620.000 0.45813
21625.000 0.45768
21630.000 0.45724
21635.000 0.45680
21640.000 0.45636
21645.000 0.45592
21650.000 0.45548
21655.000 0.45504
21660.000 0.45460
21665.000 0.45416
21670.000 0.45373
21675.000 0.45329
21680.000 0.45285
21685.000 0.45241
21690.000 0.45198
21695.000 0.45154
21700.000 0.45110
21705.000 0.45067
21710.000 0.45023
21715.000 0.44979
21720.000 0.44936
21725.000 0.44892
21730.000 0.44849
21735.000 0.44806
21740.000 0.44762
21745.000 0.44719
21750.000 0.44676
21755.000 0.44632
21760.000 0.44589
21765.000 0.44546
21770.000 0.44503
21775.000 0.44459
21780.000 0.44416
21785.000 0.44373
21790.000 0.44330
21795.000 0.44287
21800.000 0.44244
21805.000 0.44201
21810.000 0.44158
21815.000 0.44115
21820.000 0.44073
21825.000 0.44030
21830.000 0.43987
21835.000 0.43944
21840.000 0.43902
21845.000 0.43859
21850.000 0.43816
21855.000 0.43774
21860.000 0.43731
21865.000 0.43689
21870.000 0.43646
21875.000 0.43604
21880.000 0.43561
21885.000 0.43519
21890.000 0.43476
21895.000 0.43434
21900.000 0.43392
21905.000 0.43350
21910.000 0.43307
21915.000 0.43265
21920.000 0.43223
21925.000 0.43181
21930.000 0.43139
21935.000 0.43097
21940.000 0.43055
21945.000 0.43013
21950.000 0.42971
21955.000 0.42929
21960.000 0.42887
21965.000 0.42845
21970.000 0.42803
21975.000 0.42761
21980.000 0.42720
21985.000 0.42678
21990.000 0.42636
21995.000 0.42595
22000.000 0.42553
22005.000 0.42511
22010.000 0.42470
22015.000 0.42428
22020.000 0.42387
22025.000 0.42345
22030.000 0.42304
22035.000 0.42263
22040.000 0.42221
22045.000 0.42180
22050.000 0.42139
22055.000 0.42097
22060.000 0.42056
22065.000 0.42015
22070.000 0.41974
22075.000 0.41933
22080.000 0.41892
22085.000 0.41851
22090.000 0.41809
22095.000 0.41769
22100.000 0.41728
22105.000 0.41687
22110.000 0.41646
22115.000 0.41605
22120.000 0.41564
22125.000 0.41523
22130.000 0.41483
22135.000 0.41442
22140.000 0.41401
22145.000 0.41361
22150.000 0.41320
22155.000 0.41279
22160.000 0.41239
22165.000 0.41198
22170.000 0.41158
22175.000 0.41117
22180.000 0.41077
22185.000 0.41037
22190.000 0.40996
22195.000 0.40956
22200.000 0.40916
22205.000 0.40875
22210.000 0.40835
22215.000 0.40795
22220.000 0.40755
22225.000 0.40715
22230.000 0.40675
22235.000 0.40635
22240.000 0.40595
22245.000 0.40555
22250.000 0.40515
22255.000 0.40475
22260.000 0.40435
22265.000 0.40395
22270.000 0.40355
22275.000 0.40315
22280.000 0.40276
22285.000 0.40236
22290.000 0.40196
22295.000 0.40157
22300.000 0.40117
22305.000 0.40077
22310.000 0.40038
22315.000 0.39998
22320.000 0.39959
22325.000 0.39919
22330.000 0.39880
22335.000 0.39841
22340.000 0.39801
22345.000 0.39762
22350.000 0.39722
22355.000 0.39683
22360.000 0.39644
22365.000 0.39605
22370.000 0.39566
22375.000 0.39527
22380.000 0.39487
22385.000 0.39448
22390.000 0.39409
22395.000 0.39370
22400.000 0.39331
22405.000 0.39292
22410.000 0.39254
22415.000 0.39215
22420.000 0.39176
22425.000 0.39137
22430.000 0.39098
22435.000 0.39060
22440.000 0.39021
22445.000 0.38982
22450.000 0.38944
22455.000 0.38905
22460.000 0.38866
22465.000 0.38828
22470.000 0.38789
22475.000 0.38751
22480.000 0.38712
22485.000 0.38674
22490.000 0.38636
22495.000 0.38597
22500.000 0.38559
22505.000 0.38521
22510.000 0.38482
22515.000 0.38444
22520.000 0.38406
22525.000 0.38368
22530.000 0.38330
22535.000 0.38292
22540.000 0.38254
22545.000 0.38215
22550.000 0.38178
22555.000 0.38140
22560.000 0.38102
22565.000 0.38064
22570.000 0.38026
22575.000 0.37988
22580.000 0.37950
22585.000 0.37913
22590.000 0.37875
22595.000 0.37837
22600.000 0.37799
22605.000 0.37762
22610.000 0.37724
22615.000 0.37687
22620.000 0.37649
22625.000 0.37612
22630.000 0.37574
22635.000 0.37537
22640.000 0.37499
22645.000 0.37462
22650.000 0.37424
22655.000 0.37387
22660.000 0.37350
22665.000 0.37313
22670.000 0.37275
22675.000 0.37238
22680.000 0.37201
22685.000 0.37164
22690.000 0.37127
22695.000 0.37090
22700.000 0.37053
22705.000 0.37016
22710.000 0.36979
22715.000 0.36942
22720.000 0.36905
22725.000 0.36868
22730.000 0.36831
22735.000 0.36794
22740.000 0.36758
22745.000 0.36721
22750.000 0.36684
22755.000 0.36648
22760.000 0.36611
22765.000 0.36574
22770.000 0.36538
22775.000 0.36501
22780.000 0.36465
22785.000 0.36428
22790.000 0.36392
22795.000 0.36355
22800.000 0.36319
22805.000 0.36282
22810.000 0.36246
22815.000 0.36210
22820.000 0.36174
22825.000 0.36137
22830.000 0.36101
22835.000 0.36065
22840.000 0.36029
22845.000 0.35993
22850.000 0.35957
22855.000 0.35921
22860.000 0.35885
22865.000 0.35849
22870.000 0.35813
22875.000 0.35777
22880.000 0.35741
22885.000 0.35705
22890.000 0.35669
22895.000 0.35633
22900.000 0.35598
22905.000 0.35562
22910.000 0.35526
22915.000 0.35490
22920.000 0.35455
22925.000 0.35419
22930.000 0.35384
22935.000 0.35348
22940.000 0.35313
22945.000 0.35277
22950.000 0.35242
22955.000 0.35206
22960.000 0.35171
22965.000 0.35135
22970.000 0.35100
22975.000 0.35065
22980.000 0.35030
22985.000 0.34994
22990.000 0.34959
22995.000 0.34924
23000.000 0.34889
23005.000 0.34854
23010.000 0.34819
23015.000 0.34784
23020.000 0.34749
23025.000 0.34714
23030.000 0.34679
23035.000 0.34644
23040.000 0.34609
23045.000 0.34574
23050.000 0.34539
23055.000 0.34504
23060.000 0.34469
23065.000 0.34435
23070.000 0.34400
23075.000 0.34365
23080.000 0.34331
23085.000 0.34296
23090.000 0.34262
23095.000 0.34227
23100.000 0.34192
23105.000 0.34158
23110.000 0.34124
23115.000 0.34089
23120.000 0.34055
23125.000 0.34020
23130.000 0.33986
23135.000 0.33952
23140.000 0.33917
23145.000 0.33883
23150.000 0.33849
23155.000 0.33815
23160.000 0.33781
23165.000 0.33746
23170.000 0.33712
23175.000 0.33678
23180.000 0.33644
23185.000 0.33610
23190.000 0.33576
23195.000 0.33542
23200.000 0.33508
23205.000 0.33475
23210.000 0.33441
23215.000 0.33407
23220.000 0.33373
23225.000 0.33339
23230.000 0.33306
23235.000 0.33272
23240.000 0.33238
23245.000 0.33205
23250.000 0.33171
23255.000 0.33137
23260.000 0.33104
23265.000 0.33070
23270.000 0.33037
23275.000 0.33003
23280.000 0.32970
23285.000 0.32937
23290.000 0.32903
23295.000 0.32870
23300.000 0.32837
23305.000 0.32803
23310.000 0.32770
23315.000 0.32737
23320.000 0.32704
23325.000 0.32670
23330.000 0.32637
23335.000 0.32604
23340.000 0.32571
23345.000 0.32538
23350.000 0.32505
23355.000 0.32472
23360.000 0.32439
23365.000 0.32406
23370.000 0.32373
23375.000 0.32341
23380.000 0.32308
23385.000 0.32275
23390.000 0.32242
23395.000 0.32210
23400.000 0.32177
23405.000 0.32144
23410.000 0.32112
23415.000 0.32079
23420.000 0.32046
23425.000 0.32014
23430.000 0.31981
23435.000 0.31949
23440.000 0.31916
23445.000 0.31884
23450.000 0.31852
23455.000 0.31819
23460.000 0.31787
23465.000 0.31754
23470.000 0.31722
23475.000 0.31690
23480.000 0.31658
23485.000 0.31625
23490.000 0.31593
23495.000 0.31561
23500.000 0.31529
23505.000 0.31497
23510.000 0.31465
23515.000 0.31433
23520.000 0.31401
23525.000 0.31369
23530.000 0.31337
23535.000 0.31305
23540.000 0.31273
23545.000 0.31241
23550.000 0.31210
23555.000 0.31178
23560.000 0.31146
23565.000 0.31114
23570.000 0.31083
23575.000 0.31051
23580.000 0.31019
23585.000 0.30988
23590.000 0.30956
23595.000 0.30925
23600.000 0.30893
23605.000 0.30862
23610.000 0.30830
23615.000 0.30799
23620.000 0.30767
23625.000 0.30736
23630.000 0.30705
23635.000 0.30673
23640.000 0.30642
23645.000 0.30611
23650.000 0.30580
23655.000 0.30548
23660.000 0.30517
23665.000 0.30486
23670.000 0.30455
23675.000 0.30424
23680.000 0.30393
23685.000 0.30362
23690.000 0.30331
23695.000 0.30300
23700.000 0.30269
23705.000 0.30238
23710.000 0.30207
23715.000 0.30176
23720.000 0.30146
23725.000 0.30115
23730.000 0.30084
23735.000 0.30053
23740.000 0.30023
23745.000 0.29992
23750.000 0.29961
23755.000 0.29931
23760.000 0.29900
23765.000 0.29870
23770.000 0.29839
23775.000 0.29809
23780.000 0.29778
23785.000 0.29748
23790.000 0.29717
23795.000 0.29687
23800.000 0.29657
23805.000 0.29626
23810.000 0.29596
23815.000 0.29566
23820.000 0.29536
23825.000 0.29505
23830.000 0.29475
23835.000 0.29445
23840.000 0.29415
23845.000 0.29385
23850.000 0.29355
23855.000 0.29325
23860.000 0.29295
23865.000 0.29265
23870.000 0.29235
23875.000 0.29205
23880.000 0.29175
23885.000 0.29145
23890.000 0.29115
23895.000 0.29086
23900.000 0.29056
23905.000 0.29026
23910.000 0.28996
23915.000 0.28967
23920.000 0.28937
23925.000 0.28907
23930.000 0.28878
23935.000 0.28848
23940.000 0.28819
23945.000 0.28789
23950.000 0.28760
23955.000 0.28730
23960.000 0.28701
23965.000 0.28671
23970.000 0.28642
23975.000 0.28613
23980.000 0.28583
23985.000 0.28554
23990.000 0.28525
23995.000 0.28496
24000.000 0.28466
24005.000 0.28437
24010.000 0.28408
24015.000 0.28379
24020.000 0.28350
24025.000 0.28321
24030.000 0.28292
24035.000 0.28263
24040.000 0.28234
24045.000 0.28205
24050.000 0.28176
24055.000 0.28147
24060.000 0.28118
24065.000 0.28089
24070.000 0.28060
24075.000 0.28032
24080.000 0.28003
24085.000 0.27974
24090.000 0.27945
24095.000 0.27917
24100.000 0.27888
24105.000 0.27860
24110.000 0.27831
24115.000 0.27802
24120.000 0.27774
24125.000 0.27745
24130.000 0.27717
24135.000 0.27688
24140.000 0.27660
24145.000 0.27632
24150.000 0.27603
24155.000 0.27575
24160.000 0.27547
24165.000 0.27518
24170.000 0.27490
24175.000 0.27462
24180.000 0.27434
24185.000 0.27406
24190.000 0.27378
24195.000 0.27349
24200.000 0.27321
24205.000 0.27293
24210.000 0.27265
24215.000 0.27237
24220.000 0.27209
24225.000 0.27181
24230.000 0.27153
24235.000 0.27126
24240.000 0.27098
24245.000 0.27070
24250.000 0.27042
24255.000 0.27014
24260.000 0.26987
24265.000 0.26959
24270.000 0.26931
24275.000 0.26903
24280.000 0.26876
24285.000 0.26848
24290.000 0.26821
24295.000 0.26793
24300.000 0.26766
24305.000 0.26738
24310.000 0.26711
24315.000 0.26683
24320.000 0.26656
24325.000 0.26628
24330.000 0.26601
24335.000 0.26574
24340.000 0.26546
24345.000 0.26519
24350.000 0.26492
24355.000 0.26465
24360.000 0.26437
24365.000 0.26410
24370.000 0.26383
24375.000 0.26356
24380.000 0.26329
24385.000 0.26302
24390.000 0.26275
24395.000 0.26248
24400.000 0.26221
24405.000 0.26194
24410.000 0.26167
24415.000 0.26140
24420.000 0.26113
24425.000 0.26086
24430.000 0.26059
24435.000 0.26033
24440.000 0.26006
24445.000 0.25979
24450.000 0.25953
24455.000 0.25926
24460.000 0.25899
24465.000 0.25873
24470.000 0.25846
24475.000 0.25819
24480.000 0.25793
24485.000 0.25766
24490.000 0.25740
24495.000 0.25713
24500.000 0.25687
24505.000 0.25661
24510.000 0.25634
24515.000 0.25608
24520.000 0.25581
24525.000 0.25555
24530.000 0.25529
24535.000 0.25503
24540.000 0.25477
24545.000 0.25450
24550.000 0.25424
24555.000 0.25398
24560.000 0.25372
24565.000 0.25346
24570.000 0.25320
24575.000 0.25294
24580.000 0.25268
24585.000 0.25242
24590.000 0.25216
24595.000 0.25190
24600.000 0.25164
24605.000 0.25138
24610.000 0.25112
24615.000 0.25086
24620.000 0.25061
24625.000 0.25035
24630.000 0.25009
24635.000 0.24983
24640.000 0.24958
24645.000 0.24932
24650.000 0.24906
24655.000 0.24881
24660.000 0.24855
24665.000 0.24830
24670.000 0.24804
24675.000 0.24779
24680.000 0.24753
24685.000 0.24728
24690.000 0.24702
24695.000 0.24677
24700.000 0.24652
24705.000 0.24626
24710.000 0.24601
24715.000 0.24576
24720.000 0.24550
24725.000 0.24525
24730.000 0.24500
24735.000 0.24475
24740.000 0.24450
24745.000 0.24425
24750.000 0.24399
24755.000 0.24374
24760.000 0.24349
24765.000 0.24324
24770.000 0.24299
24775.000 0.24274
24780.000 0.24249
24785.000 0.24225
24790.000 0.24200
24795.000 0.24175
24800.000 0.24150
24805.000 0.24125
24810.000 0.24100
24815.000 0.24076
24820.000 0.24051
24825.000 0.24026
24830.000 0.24001
24835.000 0.23977
24840.000 0.23952
24845.000 0.23928
24850.000 0.23903
24855.000 0.23878
24860.000 0.23854
24865.000 0.23829
24870.000 0.23805
24875.000 0.23781
24880.000 0.23756
24885.000 0.23732
24890.000 0.23707
24895.000 0.23683
24900.000 0.23659
24905.000 0.23634
24910.000 0.23610
24915.000 0.23586
24920.000 0.23562
24925.000 0.23537
24930.000 0.23513
24935.000 0.23489
24940.000 0.23465
24945.000 0.23441
24950.000 0.23417
24955.000 0.23393
24960.000 0.23369
24965.000 0.23345
24970.000 0.23321
24975.000 0.23297
24980.000 0.23273
24985.000 0.23249
24990.000 0.23225
24995.000 0.23201
25000.000 0.00000
