# Wavelength_[A] F_lambda_[norm]
1150.000 353.04910
1155.000 283.72154
1160.000 240.35530
1165.000 214.59363
1170.000 190.62898
1175.000 193.78193
1180.000 210.27017
1185.000 195.82088
1190.000 139.23533
1195.000 111.78641
1200.000 103.89807
1205.000 89.10391
1210.000 102.13980
1215.000 115.03521
1220.000 73.40822
1225.000 46.34530
1230.000 55.63930
1235.000 98.30786
1240.000 208.75395
1245.000 297.92436
1250.000 266.69820
1255.000 236.53728
1260.000 236.32126
1265.000 257.18907
1270.000 280.54151
1275.000 286.88078
1280.000 290.26985
1285.000 306.36979
1290.000 322.09270
1295.000 322.58717
1300.000 291.87420
1305.000 277.92656
1310.000 308.66293
1315.000 321.24754
1320.000 318.45926
1325.000 324.51585
1330.000 308.99380
1335.000 279.96214
1340.000 286.81276
1345.000 325.45286
1350.000 341.29226
1355.000 334.28174
1360.000 312.61472
1365.000 299.26571
1370.000 296.82774
1375.000 293.35499
1380.000 302.74898
1385.000 260.09273
1390.000 260.22982
1395.000 292.02515
1400.000 343.79699
1405.000 362.71680
1410.000 356.23931
1415.000 348.30066
1420.000 342.14349
1425.000 358.62155
1430.000 353.81362
1435.000 376.75807
1440.000 359.75001
1445.000 344.99546
1450.000 335.65213
1455.000 324.18092
1460.000 330.29720
1465.000 351.13600
1470.000 381.28277
1475.000 394.05135
1480.000 410.76304
1485.000 426.23245
1490.000 440.24565
1495.000 425.14034
1500.000 394.80685
1505.000 407.63467
1510.000 425.63276
1515.000 418.43151
1520.000 417.57231
1525.000 392.60052
1530.000 297.94030
1535.000 148.39565
1540.000 115.28731
1545.000 249.56426
1550.000 478.98297
1555.000 588.80322
1560.000 504.34967
1565.000 425.65450
1570.000 411.96719
1575.000 420.80916
1580.000 415.77070
1585.000 402.26157
1590.000 393.74595
1595.000 386.82296
1600.000 372.88906
1605.000 359.58675
1610.000 343.34195
1615.000 347.30732
1620.000 345.77598
1625.000 348.56166
1630.000 351.86494
1635.000 358.62252
1640.000 366.78636
1645.000 386.44257
1650.000 379.24493
1655.000 343.24156
1660.000 338.04438
1665.000 361.50830
1670.000 354.02169
1675.000 355.94785
1680.000 376.79839
1685.000 379.84011
1690.000 373.29303
1695.000 369.64181
1700.000 361.06133
1705.000 347.58203
1710.000 313.20596
1715.000 292.45172
1720.000 329.63738
1725.000 363.73269
1730.000 365.80553
1735.000 368.91936
1740.000 364.93699
1745.000 360.10073
1750.000 355.12914
1755.000 357.60524
1760.000 357.79447
1765.000 350.68817
1770.000 347.26757
1775.000 352.95608
1780.000 348.85986
1785.000 320.79496
1790.000 281.98460
1795.000 307.34567
1800.000 320.88909
1805.000 310.66485
1810.000 304.73432
1815.000 313.98423
1820.000 315.93556
1825.000 310.07073
1830.000 304.71386
1835.000 300.79867
1840.000 293.53314
1845.000 289.55174
1850.000 279.49604
1855.000 267.57809
1860.000 267.92627
1865.000 271.00331
1870.000 267.05047
1875.000 259.39071
1880.000 257.78084
1885.000 250.99420
1890.000 247.12314
1895.000 244.09330
1900.000 237.50427
1905.000 229.00832
1910.000 226.15466
1915.000 218.64130
1920.000 207.87938
1925.000 202.97657
1930.000 204.53196
1935.000 202.38428
1940.000 198.43071
1945.000 193.56083
1950.000 189.23782
1955.000 182.41611
1960.000 173.97782
1965.000 168.85571
1970.000 163.68285
1975.000 165.72186
1980.000 161.32875
1985.000 157.78141
1990.000 145.91810
1995.000 137.93787
2000.000 146.08476
2005.000 139.60552
2010.000 130.70548
2015.000 131.02020
2020.000 128.69940
2025.000 121.17209
2030.000 118.02180
2035.000 120.24505
2040.000 115.32032
2045.000 111.14454
2050.000 110.17921
2055.000 111.77481
2060.000 98.22356
2065.000 94.44157
2070.000 107.53651
2075.000 100.90518
2080.000 104.43452
2085.000 99.12197
2090.000 91.89661
2095.000 84.36530
2100.000 74.19490
2105.000 75.57411
2110.000 82.44520
2115.000 81.30140
2120.000 74.92616
2125.000 77.98560
2130.000 79.61435
2135.000 68.79796
2140.000 66.61249
2145.000 65.19115
2150.000 63.07536
2155.000 65.51985
2160.000 66.52919
2165.000 63.80733
2170.000 61.26737
2175.000 55.52551
2180.000 50.09242
2185.000 50.14243
2190.000 52.00606
2195.000 57.10502
2200.000 58.95282
2205.000 60.10454
2210.000 56.71260
2215.000 57.67168
2220.000 58.62490
2225.000 61.38479
2230.000 64.81188
2235.000 62.30300
2240.000 62.26251
2245.000 63.67631
2250.000 71.48264
2255.000 78.21959
2260.000 74.06593
2265.000 70.31561
2270.000 77.61101
2275.000 74.58572
2280.000 73.45609
2285.000 75.25088
2290.000 78.80356
2295.000 82.63784
2300.000 82.17812
2305.000 86.96888
2310.000 95.99717
2315.000 97.90075
2320.000 90.47467
2325.000 95.48961
2330.000 105.02166
2335.000 110.23350
2340.000 107.71294
2345.000 107.99840
2350.000 111.65859
2355.000 111.96411
2360.000 113.43463
2365.000 111.98897
2370.000 117.42314
2375.000 120.00380
2380.000 123.34984
2385.000 124.32592
2390.000 120.27060
2395.000 124.71106
2400.000 135.21944
2405.000 132.34070
2410.000 130.96659
2415.000 131.95513
2420.000 134.06244
2425.000 139.73992
2430.000 147.29809
2435.000 145.98300
2440.000 146.25997
2445.000 152.88321
2450.000 151.83017
2455.000 161.68265
2460.000 170.92118
2465.000 171.87760
2470.000 161.73132
2475.000 158.82705
2480.000 159.02866
2485.000 161.67502
2490.000 163.50396
2495.000 158.04575
2500.000 166.06141
2505.000 166.20716
2510.000 164.47489
2515.000 163.61092
2520.000 163.76232
2525.000 168.18918
2530.000 176.90307
2535.000 181.50193
2540.000 178.21710
2545.000 176.56054
2550.000 182.20447
2555.000 179.76850
2560.000 177.79324
2565.000 184.94630
2570.000 187.73475
2575.000 184.83565
2580.000 156.23936
2585.000 142.42288
2590.000 159.43966
2595.000 172.86329
2600.000 173.78324
2605.000 178.35416
2610.000 180.81122
2615.000 190.91081
2620.000 195.70997
2625.000 196.79379
2630.000 196.59729
2635.000 195.98094
2640.000 187.36190
2645.000 188.98002
2650.000 194.87443
2655.000 196.29052
2660.000 193.74941
2665.000 190.70537
2670.000 192.62138
2675.000 193.58080
2680.000 194.05947
2685.000 195.62444
2690.000 200.48973
2695.000 193.77876
2700.000 191.48318
2705.000 194.64687
2710.000 195.48144
2715.000 192.78919
2720.000 192.99311
2725.000 193.45498
2730.000 199.10942
2735.000 200.27231
2740.000 199.55965
2745.000 197.10322
2750.000 201.04452
2755.000 198.61847
2760.000 204.65227
2765.000 210.30758
2770.000 205.87332
2775.000 200.19795
2780.000 200.53611
2785.000 197.83748
2790.000 195.48493
2795.000 186.35390
2800.000 178.47758
2805.000 186.34430
2810.000 202.70900
2815.000 207.29940
2820.000 206.76150
2825.000 200.92490
2830.000 199.56251
2835.000 204.15123
2840.000 208.14137
2845.000 203.83217
2850.000 201.46446
2855.000 197.67396
2860.000 201.72134
2865.000 206.95062
2870.000 206.35101
2875.000 206.51962
2880.000 204.83228
2885.000 206.80047
2890.000 210.51213
2895.000 211.43349
2900.000 209.48701
2905.000 205.38002
2910.000 207.77161
2915.000 209.95531
2920.000 211.82831
2925.000 211.29857
2930.000 209.83311
2935.000 206.53419
2940.000 206.81456
2945.000 210.21079
2950.000 208.90772
2955.000 212.62821
2960.000 214.66745
2965.000 210.34670
2970.000 210.76378
2975.000 211.58289
2980.000 214.27714
2985.000 210.40568
2990.000 210.22825
2995.000 206.70351
3000.000 206.22633
3005.000 205.80633
3010.000 210.80913
3015.000 211.88935
3020.000 207.87323
3025.000 201.39485
3030.000 203.23150
3035.000 205.92433
3040.000 209.63573
3045.000 206.83071
3050.000 205.21104
3055.000 207.78930
3060.000 200.39811
3065.000 197.54619
3070.000 202.31924
3075.000 201.46249
3080.000 210.53554
3085.000 219.17043
3090.000 218.41165
3095.000 214.84806
3100.000 220.25708
3105.000 223.12080
3110.000 220.28486
3115.000 220.32381
3120.000 221.03944
3125.000 227.20538
3130.000 227.48415
3135.000 224.93419
3140.000 226.17401
3145.000 235.23248
3150.000 238.95905
3155.000 237.66991
3160.000 231.58389
3165.000 235.88601
3170.000 239.84746
3175.000 242.60429
3180.000 239.42597
3185.000 232.60686
3190.000 234.91941
3195.000 227.14652
3200.000 210.19401
3205.000 219.97499
3210.000 228.39059
3215.000 222.71220
3220.000 214.34053
3225.000 215.99351
3230.000 221.52913
3235.000 222.33732
3240.000 218.79630
3245.000 213.88732
3250.000 212.01563
3255.000 215.65707
3260.000 218.14603
3265.000 213.42328
3270.000 206.99683
3275.000 204.97725
3280.000 204.31884
3285.000 201.12805
3290.000 197.27643
3295.000 195.08024
3300.000 192.86952
3305.000 189.05827
3310.000 186.38299
3315.000 187.46532
3320.000 190.14577
3325.000 191.43609
3330.000 189.81456
3335.000 185.24485
3340.000 182.16518
3345.000 184.05904
3350.000 186.11588
3355.000 183.54425
3360.000 179.92347
3365.000 179.27463
3370.000 179.01529
3375.000 176.22642
3380.000 173.24559
3385.000 172.67611
3390.000 172.92761
3395.000 171.95982
3400.000 170.12680
3405.000 168.35081
3410.000 167.43300
3415.000 167.83179
3420.000 168.75649
3425.000 169.23779
3430.000 168.84157
3435.000 167.57160
3440.000 166.64827
3445.000 167.05907
3450.000 167.64344
3455.000 167.07999
3460.000 165.55165
3465.000 163.47850
3470.000 160.72417
3475.000 157.38702
3480.000 155.06033
3485.000 155.15089
3490.000 156.82482
3495.000 158.60889
3500.000 158.71314
3505.000 156.17506
3510.000 157.35550
3515.000 158.00200
3520.000 157.89967
3525.000 156.96634
3530.000 155.24422
3535.000 154.55925
3540.000 153.83331
3545.000 152.89949
3550.000 151.89747
3555.000 150.54622
3560.000 149.04329
3565.000 148.06658
3570.000 147.21916
3575.000 144.72414
3580.000 142.89989
3585.000 141.65079
3590.000 141.12800
3595.000 140.93613
3600.000 140.44523
3605.000 139.98903
3610.000 141.09439
3615.000 140.32984
3620.000 139.26757
3625.000 139.45501
3630.000 139.93822
3635.000 140.26608
3640.000 140.22282
3645.000 139.96314
3650.000 139.93630
3655.000 141.58283
3660.000 141.83580
3665.000 140.63556
3670.000 138.85680
3675.000 136.85786
3680.000 135.19641
3685.000 135.19678
3690.000 134.48373
3695.000 133.65167
3700.000 132.58777
3705.000 131.18327
3710.000 131.51627
3715.000 132.55600
3720.000 131.56771
3725.000 129.56543
3730.000 128.79987
3735.000 129.85874
3740.000 131.44858
3745.000 129.63916
3750.000 125.47575
3755.000 123.52156
3760.000 123.64039
3765.000 123.15809
3770.000 121.67168
3775.000 127.04501
3780.000 132.56211
3785.000 131.96282
3790.000 128.22019
3795.000 123.19450
3800.000 124.02518
3805.000 129.61898
3810.000 132.46735
3815.000 132.84140
3820.000 131.42468
3825.000 128.76790
3830.000 122.33627
3835.000 117.70857
3840.000 122.56723
3845.000 127.10742
3850.000 127.79059
3855.000 126.57863
3860.000 126.04364
3865.000 124.92961
3870.000 124.15232
3875.000 122.87323
3880.000 117.76678
3885.000 109.58080
3890.000 108.83454
3895.000 116.35821
3900.000 121.42780
3905.000 122.04995
3910.000 120.60492
3915.000 118.42057
3920.000 116.51716
3925.000 115.40537
3930.000 113.64930
3935.000 113.73340
3940.000 116.18898
3945.000 116.67556
3950.000 116.02686
3955.000 113.82168
3960.000 108.22753
3965.000 99.32912
3970.000 95.74721
3975.000 103.30049
3980.000 108.77587
3985.000 109.58495
3990.000 108.40445
3995.000 107.57246
4000.000 106.89738
4005.000 106.18144
4010.000 105.32164
4015.000 104.06376
4020.000 101.60095
4025.000 99.16652
4030.000 99.68985
4035.000 100.76998
4040.000 101.95125
4045.000 102.53634
4050.000 102.75618
4055.000 101.83522
4060.000 101.35241
4065.000 100.67951
4070.000 99.25091
4075.000 98.86103
4080.000 98.29334
4085.000 96.65579
4090.000 94.14380
4095.000 88.35264
4100.000 82.78570
4105.000 86.62364
4110.000 92.70674
4115.000 94.57654
4120.000 94.83622
4125.000 94.62061
4130.000 94.42860
4135.000 93.81425
4140.000 93.13057
4145.000 92.72715
4150.000 92.33567
4155.000 92.28909
4160.000 91.84131
4165.000 91.23728
4170.000 90.75401
4175.000 90.45969
4180.000 90.15603
4185.000 89.30586
4190.000 87.49770
4195.000 85.04661
4200.000 83.61427
4205.000 85.11757
4210.000 86.10996
4215.000 85.96013
4220.000 85.80685
4225.000 85.60021
4230.000 85.28074
4235.000 84.44029
4240.000 83.80353
4245.000 83.75252
4250.000 83.68174
4255.000 82.96968
4260.000 82.06721
4265.000 81.37130
4270.000 81.17426
4275.000 80.95633
4280.000 80.58795
4285.000 80.22867
4290.000 79.78201
4295.000 79.70297
4300.000 79.57329
4305.000 79.30660
4310.000 79.38971
4315.000 79.10362
4320.000 78.45298
4325.000 77.56588
4330.000 74.58535
4335.000 69.07356
4340.000 65.84743
4345.000 69.80273
4350.000 74.00949
4355.000 75.82582
4360.000 76.09702
4365.000 75.80833
4370.000 75.39691
4375.000 74.96262
4380.000 74.24328
4385.000 73.64936
4390.000 73.87160
4395.000 73.79247
4400.000 73.18952
4405.000 72.52948
4410.000 71.74189
4415.000 70.41228
4420.000 69.07790
4425.000 67.89244
4430.000 66.88726
4435.000 67.17872
4440.000 68.15643
4445.000 68.87515
4450.000 69.50964
4455.000 69.69445
4460.000 68.97065
4465.000 67.90818
4470.000 66.41660
4475.000 66.68957
4480.000 67.12094
4485.000 67.05255
4490.000 66.87092
4495.000 66.71394
4500.000 66.55517
4505.000 65.99500
4510.000 65.66485
4515.000 65.29909
4520.000 65.16352
4525.000 64.62481
4530.000 63.81499
4535.000 62.07236
4540.000 60.25837
4545.000 61.47530
4550.000 62.72249
4555.000 63.07393
4560.000 63.13023
4565.000 62.78390
4570.000 62.33290
4575.000 62.00546
4580.000 62.06610
4585.000 61.68697
4590.000 60.99454
4595.000 60.68074
4600.000 60.47507
4605.000 60.25168
4610.000 60.38956
4615.000 60.40308
4620.000 60.08556
4625.000 59.56717
4630.000 59.53519
4635.000 59.51682
4640.000 59.67116
4645.000 59.26751
4650.000 58.63207
4655.000 58.23722
4660.000 58.41174
4665.000 58.29769
4670.000 57.69717
4675.000 56.97274
4680.000 54.75555
4685.000 53.14631
4690.000 54.72603
4695.000 56.11860
4700.000 55.96236
4705.000 55.70834
4710.000 54.79330
4715.000 54.29049
4720.000 54.00154
4725.000 53.47467
4730.000 53.57849
4735.000 53.41311
4740.000 53.29252
4745.000 53.23828
4750.000 52.81145
4755.000 52.14717
4760.000 51.54577
4765.000 51.44798
4770.000 51.69388
4775.000 51.39462
4780.000 51.00326
4785.000 50.98825
4790.000 50.87120
4795.000 50.49121
4800.000 50.13880
4805.000 50.01492
4810.000 49.87658
4815.000 49.66202
4820.000 49.55074
4825.000 49.39922
4830.000 49.37273
4835.000 49.25265
4840.000 49.13860
4845.000 48.43069
4850.000 46.72300
4855.000 42.90858
4860.000 39.49610
4865.000 41.66416
4870.000 44.91221
4875.000 45.87835
4880.000 46.03221
4885.000 46.18418
4890.000 46.29092
4895.000 46.24565
4900.000 46.17752
4905.000 46.32829
4910.000 46.27894
4915.000 46.05135
4920.000 45.36322
4925.000 45.56794
4930.000 45.95708
4935.000 45.74961
4940.000 45.36516
4945.000 45.23119
4950.000 45.16432
4955.000 45.01543
4960.000 44.95588
4965.000 44.60924
4970.000 44.12834
4975.000 43.88829
4980.000 43.51793
4985.000 43.73026
4990.000 43.69528
4995.000 43.57806
5000.000 43.47487
5005.000 43.06693
5010.000 42.53442
5015.000 42.01606
5020.000 42.02715
5025.000 41.96937
5030.000 41.72732
5035.000 41.68319
5040.000 41.60049
5045.000 41.42083
5050.000 41.24122
5055.000 41.16275
5060.000 41.01523
5065.000 40.93904
5070.000 40.93299
5075.000 40.91367
5080.000 40.82382
5085.000 40.65933
5090.000 40.49467
5095.000 40.19781
5100.000 40.17458
5105.000 39.84171
5110.000 39.53696
5115.000 39.41883
5120.000 39.26148
5125.000 39.18749
5130.000 39.15949
5135.000 39.02846
5140.000 38.90870
5145.000 38.75475
5150.000 38.55897
5155.000 38.41231
5160.000 38.31261
5165.000 38.11397
5170.000 37.96434
5175.000 37.97148
5180.000 37.81273
5185.000 37.60552
5190.000 37.37422
5195.000 37.38556
5200.000 37.11208
5205.000 36.79159
5210.000 36.86743
5215.000 36.82051
5220.000 36.58986
5225.000 36.37973
5230.000 36.16666
5235.000 36.02729
5240.000 35.87457
5245.000 35.87237
5250.000 35.59540
5255.000 35.70177
5260.000 35.67108
5265.000 35.32009
5270.000 35.08696
5275.000 35.07124
5280.000 34.89524
5285.000 34.85191
5290.000 34.64719
5295.000 34.40328
5300.000 34.22113
5305.000 34.23385
5310.000 34.12831
5315.000 34.14634
5320.000 34.06530
5325.000 33.86137
5330.000 33.59143
5335.000 33.49073
5340.000 33.30132
5345.000 33.26722
5350.000 33.28666
5355.000 33.24262
5360.000 32.91836
5365.000 32.76650
5370.000 32.67848
5375.000 32.58526
5380.000 32.53011
5385.000 32.36053
5390.000 32.42388
5395.000 32.23842
5400.000 31.67762
5405.000 30.47727
5410.000 29.17846
5415.000 29.83568
5420.000 31.03524
5425.000 31.29969
5430.000 31.29549
5435.000 31.14326
5440.000 31.05095
5445.000 30.79267
5450.000 30.65976
5455.000 30.51227
5460.000 30.52202
5465.000 30.38788
5470.000 30.46512
5475.000 30.39394
5480.000 30.07464
5485.000 29.74149
5490.000 29.66145
5495.000 29.95628
5500.000 29.94099
5505.000 29.63350
5510.000 29.48927
5515.000 29.50341
5520.000 29.36773
5525.000 29.13571
5530.000 29.03215
5535.000 28.80936
5540.000 28.77530
5545.000 28.75732
5550.000 28.72977
5555.000 28.64221
5560.000 28.61484
5565.000 28.54662
5570.000 28.39616
5575.000 28.39708
5580.000 28.26048
5585.000 27.92653
5590.000 27.61301
5595.000 27.57289
5600.000 27.72134
5605.000 27.66116
5610.000 27.52002
5615.000 27.36759
5620.000 27.33824
5625.000 27.26031
5630.000 27.17032
5635.000 27.10105
5640.000 27.00574
5645.000 26.91198
5650.000 26.85691
5655.000 26.74792
5660.000 26.62412
5665.000 26.50587
5670.000 26.34335
5675.000 26.17798
5680.000 26.16298
5685.000 26.21933
5690.000 26.22939
5695.000 26.32015
5700.000 26.01998
5705.000 25.50542
5710.000 25.65619
5715.000 25.66462
5720.000 25.42631
5725.000 25.28426
5730.000 25.21879
5735.000 25.08607
5740.000 24.95168
5745.000 24.86229
5750.000 24.81671
5755.000 24.74349
5760.000 24.72212
5765.000 24.53982
5770.000 24.28591
5775.000 23.86815
5780.000 23.28932
5785.000 23.61898
5790.000 23.86380
5795.000 23.32152
5800.000 22.95565
5805.000 23.14294
5810.000 23.12937
5815.000 23.33704
5820.000 23.70443
5825.000 23.77618
5830.000 23.70914
5835.000 23.59469
5840.000 23.53076
5845.000 23.34987
5850.000 23.22973
5855.000 23.13374
5860.000 23.15034
5865.000 23.10105
5870.000 22.39791
5875.000 21.62935
5880.000 22.18347
5885.000 21.52899
5890.000 19.86349
5895.000 20.17398
5900.000 21.58180
5905.000 22.45212
5910.000 22.37696
5915.000 22.34427
5920.000 22.10471
5925.000 22.02358
5930.000 22.04338
5935.000 21.95819
5940.000 21.83217
5945.000 21.64982
5950.000 21.52805
5955.000 21.55414
5960.000 21.44577
5965.000 21.43594
5970.000 21.24699
5975.000 21.26545
5980.000 21.22599
5985.000 21.09088
5990.000 21.14446
5995.000 21.19435
6000.000 21.02666
6005.000 20.88006
6010.000 20.74864
6015.000 20.72537
6020.000 20.73900
6025.000 20.75769
6030.000 20.76172
6035.000 20.45846
6040.000 20.33290
6045.000 20.45789
6050.000 20.32984
6055.000 20.34287
6060.000 20.24253
6065.000 20.09130
6070.000 20.02083
6075.000 19.97171
6080.000 19.95210
6085.000 19.92870
6090.000 19.94047
6095.000 19.88080
6100.000 19.77978
6105.000 19.66602
6110.000 19.60809
6115.000 19.61344
6120.000 19.36590
6125.000 19.48195
6130.000 19.44929
6135.000 19.36507
6140.000 19.36702
6145.000 19.25156
6150.000 19.23473
6155.000 19.13183
6160.000 19.01755
6165.000 18.74041
6170.000 18.55900
6175.000 18.58477
6180.000 18.62504
6185.000 18.68308
6190.000 18.66356
6195.000 18.64967
6200.000 18.50887
6205.000 18.38753
6210.000 18.50633
6215.000 18.48704
6220.000 18.47570
6225.000 18.32735
6230.000 18.16360
6235.000 18.13777
6240.000 18.17418
6245.000 18.27503
6250.000 18.29129
6255.000 18.20275
6260.000 18.20015
6265.000 17.92607
6270.000 17.76075
6275.000 17.31878
6280.000 16.58060
6285.000 16.78061
6290.000 17.34318
6295.000 17.46738
6300.000 17.41431
6305.000 17.19955
6310.000 16.97442
6315.000 16.98837
6320.000 17.19212
6325.000 17.35784
6330.000 17.29177
6335.000 17.29900
6340.000 17.23433
6345.000 17.14880
6350.000 17.08096
6355.000 16.97588
6360.000 16.92810
6365.000 16.85937
6370.000 16.81976
6375.000 16.70746
6380.000 16.60572
6385.000 16.64607
6390.000 16.64470
6395.000 16.55331
6400.000 16.32469
6405.000 16.23736
6410.000 16.22536
6415.000 16.29943
6420.000 16.38448
6425.000 16.42077
6430.000 16.38199
6435.000 16.30983
6440.000 16.22659
6445.000 16.14557
6450.000 16.06933
6455.000 15.99100
6460.000 15.96634
6465.000 15.95010
6470.000 15.89978
6475.000 15.87326
6480.000 15.89841
6485.000 15.77778
6490.000 15.71383
6495.000 15.74561
6500.000 15.79364
6505.000 15.78324
6510.000 15.74538
6515.000 15.55517
6520.000 15.37416
6525.000 15.14291
6530.000 15.11574
6535.000 15.30163
6540.000 15.39211
6545.000 15.28451
6550.000 14.92216
6555.000 13.97768
6560.000 12.75246
6565.000 12.84331
6570.000 14.23833
6575.000 14.98451
6580.000 15.20107
6585.000 15.13840
6590.000 15.13437
6595.000 15.09879
6600.000 15.08445
6605.000 15.06890
6610.000 14.92007
6615.000 14.85486
6620.000 14.79813
6625.000 14.86543
6630.000 14.74335
6635.000 14.73472
6640.000 14.69157
6645.000 14.61189
6650.000 14.53968
6655.000 14.41960
6660.000 14.33884
6665.000 14.24885
6670.000 14.17109
6675.000 13.89038
6680.000 13.60598
6685.000 13.67988
6690.000 13.92519
6695.000 14.08204
6700.000 14.05150
6705.000 14.02589
6710.000 14.04127
6715.000 13.99383
6720.000 13.96451
6725.000 13.98914
6730.000 13.92181
6735.000 13.86357
6740.000 13.76092
6745.000 13.73972
6750.000 13.69351
6755.000 13.63284
6760.000 13.64673
6765.000 13.58958
6770.000 13.52885
6775.000 13.46161
6780.000 13.40905
6785.000 13.35316
6790.000 13.28374
6795.000 13.31635
6800.000 13.36916
6805.000 13.30435
6810.000 13.19347
6815.000 13.19264
6820.000 13.19695
6825.000 13.15649
6830.000 13.15289
6835.000 13.08930
6840.000 12.91690
6845.000 12.88592
6850.000 12.85494
6855.000 12.82396
6860.000 12.79299
6865.000 12.76201
6870.000 12.73103
6875.000 12.70005
6880.000 12.66908
6885.000 12.63810
6890.000 12.60712
6895.000 12.57614
6900.000 12.54517
6905.000 12.51419
6910.000 12.48321
6915.000 12.45223
6920.000 12.42126
6925.000 12.39028
6930.000 12.35930
6935.000 12.32832
6940.000 12.29735
6945.000 12.26637
6950.000 12.23539
6955.000 12.20441
6960.000 12.17346
6965.000 12.14249
6970.000 12.11151
6975.000 12.29566
6980.000 12.22393
6985.000 12.11719
6990.000 11.94502
6995.000 11.94470
7000.000 11.92104
7005.000 11.90578
7010.000 11.91607
7015.000 11.81982
7020.000 11.85277
7025.000 11.82571
7030.000 11.82359
7035.000 11.82994
7040.000 11.76524
7045.000 11.64093
7050.000 11.59909
7055.000 11.65002
7060.000 11.45186
7065.000 11.26565
7070.000 11.37993
7075.000 11.52811
7080.000 11.49407
7085.000 11.50256
7090.000 11.51730
7095.000 11.51022
7100.000 11.39154
7105.000 11.39534
7110.000 11.37253
7115.000 11.34458
7120.000 11.42546
7125.000 11.41031
7130.000 11.42780
7135.000 11.45606
7140.000 11.41991
7145.000 11.36473
7150.000 11.31838
7155.000 11.27728
7160.000 11.16618
7165.000 11.03526
7170.000 10.64270
7175.000 10.37739
7180.000 10.32301
7185.000 10.27094
7190.000 10.45541
7195.000 10.57409
7200.000 10.55342
7205.000 10.63073
7210.000 10.90272
7215.000 10.95296
7220.000 10.91987
7225.000 10.88266
7230.000 10.76524
7235.000 10.55248
7240.000 10.45323
7245.000 10.40920
7250.000 10.45066
7255.000 10.39425
7260.000 10.42720
7265.000 10.30929
7270.000 10.28017
7275.000 10.13743
7280.000 10.25651
7285.000 10.28517
7290.000 10.10811
7295.000 10.22947
7300.000 10.21561
7305.000 10.07144
7310.000 10.10576
7315.000 10.03884
7320.000 10.02626
7325.000 10.04910
7330.000 9.98997
7335.000 10.01829
7340.000 9.99757
7345.000 9.96002
7350.000 9.89784
7355.000 9.91770
7360.000 9.84394
7365.000 9.75949
7370.000 9.77556
7375.000 9.78987
7380.000 9.74755
7385.000 9.61461
7390.000 9.61189
7395.000 9.65893
7400.000 9.55651
7405.000 9.46669
7410.000 9.38848
7415.000 9.45775
7420.000 9.51399
7425.000 9.25194
7430.000 9.24568
7435.000 9.21413
7440.000 9.23119
7445.000 9.21464
7450.000 9.19324
7455.000 9.23033
7460.000 9.12640
7465.000 9.14517
7470.000 9.03246
7475.000 9.06387
7480.000 9.04335
7485.000 9.00151
7490.000 8.96545
7495.000 8.95476
7500.000 8.95293
7505.000 8.90292
7510.000 8.89864
7515.000 8.90309
7520.000 8.84417
7525.000 8.85600
7530.000 8.78556
7535.000 8.75595
7540.000 8.73166
7545.000 8.72686
7550.000 8.72243
7555.000 8.69723
7560.000 8.67199
7565.000 8.64679
7570.000 8.62158
7575.000 8.59638
7580.000 8.57117
7585.000 8.54594
7590.000 8.52073
7595.000 8.49553
7600.000 8.47032
7605.000 8.44512
7610.000 8.41991
7615.000 8.39468
7620.000 8.36947
7625.000 8.34427
7630.000 8.31906
7635.000 8.29386
7640.000 8.26863
7645.000 8.24342
7650.000 8.21822
7655.000 8.19301
7660.000 8.16780
7665.000 8.14260
7670.000 8.11737
7675.000 8.09216
7680.000 8.06696
7685.000 8.04175
7690.000 8.01655
7695.000 7.99134
7700.000 7.96611
7705.000 7.94090
7710.000 7.91570
7715.000 7.89049
7720.000 7.86529
7725.000 7.84005
7730.000 7.81485
7735.000 7.77816
7740.000 7.80039
7745.000 7.76092
7750.000 7.76752
7755.000 7.74121
7760.000 7.72112
7765.000 7.68471
7770.000 7.68948
7775.000 7.68319
7780.000 7.61224
7785.000 7.63224
7790.000 7.60426
7795.000 7.58157
7800.000 7.57923
7805.000 7.55062
7810.000 7.55703
7815.000 7.51905
7820.000 7.53736
7825.000 7.50419
7830.000 7.44140
7835.000 7.45849
7840.000 7.41800
7845.000 7.42706
7850.000 7.40928
7855.000 7.41808
7860.000 7.30840
7865.000 7.30435
7870.000 7.31663
7875.000 7.29103
7880.000 7.30369
7885.000 7.23936
7890.000 7.25488
7895.000 7.19338
7900.000 7.17781
7905.000 7.19555
7910.000 7.16929
7915.000 7.17406
7920.000 7.14329
7925.000 7.07862
7930.000 7.05287
7935.000 7.08359
7940.000 7.09871
7945.000 7.03735
7950.000 7.01743
7955.000 6.97840
7960.000 6.96705
7965.000 6.97122
7970.000 6.92387
7975.000 6.94290
7980.000 6.90798
7985.000 6.90952
7990.000 6.90852
7995.000 6.86829
8000.000 6.88786
8005.000 6.91198
8010.000 6.91281
8015.000 6.88601
8020.000 6.87686
8025.000 6.86766
8030.000 6.87546
8035.000 6.86743
8040.000 6.84571
8045.000 6.84454
8050.000 6.85700
8055.000 6.88478
8060.000 6.84317
8065.000 6.79344
8070.000 6.78427
8075.000 6.76444
8080.000 6.70900
8085.000 6.67834
8090.000 6.63787
8095.000 6.61261
8100.000 6.58043
8105.000 6.58752
8110.000 6.56031
8115.000 6.61850
8120.000 6.60924
8125.000 6.58552
8130.000 6.57109
8135.000 6.53656
8140.000 6.53176
8145.000 6.48404
8150.000 6.41303
8155.000 6.35541
8160.000 6.30658
8165.000 6.28066
8170.000 6.28977
8175.000 6.33204
8180.000 6.26305
8185.000 6.37127
8190.000 6.36590
8195.000 6.23750
8200.000 6.32372
8205.000 6.29369
8210.000 6.27454
8215.000 6.20813
8220.000 6.10942
8225.000 5.99220
8230.000 5.88243
8235.000 5.93447
8240.000 5.91047
8245.000 6.02963
8250.000 6.15692
8255.000 6.14863
8260.000 6.16098
8265.000 6.15334
8270.000 6.15092
8275.000 6.06770
8280.000 6.02943
8285.000 6.00740
8290.000 6.02535
8295.000 6.04218
8300.000 6.09313
8305.000 6.02675
8310.000 6.01789
8315.000 5.99977
8320.000 5.94316
8325.000 5.94367
8330.000 5.94913
8335.000 5.93510
8340.000 5.93916
8345.000 5.86703
8350.000 5.81999
8355.000 5.77258
8360.000 5.70871
8365.000 5.72612
8370.000 5.74538
8375.000 5.76821
8380.000 5.75715
8385.000 5.79593
8390.000 5.79364
8395.000 5.78224
8400.000 5.80645
8405.000 5.79313
8410.000 5.77121
8415.000 5.76227
8420.000 5.73952
8425.000 5.74175
8430.000 5.70894
8435.000 5.70017
8440.000 5.64687
8445.000 5.66196
8450.000 5.64079
8455.000 5.65487
8460.000 5.63153
8465.000 5.61361
8470.000 5.58383
8475.000 5.61484
8480.000 5.50402
8485.000 5.50299
8490.000 5.51942
8495.000 5.53679
8500.000 5.48956
8505.000 5.51633
8510.000 5.53045
8515.000 5.50810
8520.000 5.49187
8525.000 5.45552
8530.000 5.42000
8535.000 5.38382
8540.000 5.42806
8545.000 5.32472
8550.000 5.33424
8555.000 5.34281
8560.000 5.39351
8565.000 5.37419
8570.000 5.32692
8575.000 5.28880
8580.000 5.25639
8585.000 5.22490
8590.000 5.17755
8595.000 5.13394
8600.000 5.15237
8605.000 5.12694
8610.000 5.16961
8615.000 5.18155
8620.000 5.16046
8625.000 5.16300
8630.000 5.19781
8635.000 5.18172
8640.000 5.12360
8645.000 5.14346
8650.000 5.15523
8655.000 5.14603
8660.000 5.11477
8665.000 5.09936
8670.000 5.12394
8675.000 5.14163
8680.000 5.16458
8685.000 5.17035
8690.000 5.16926
8695.000 5.17581
8700.000 5.17921
8705.000 5.14340
8710.000 5.12585
8715.000 5.11671
8720.000 5.10651
8725.000 5.10299
8730.000 5.06190
8735.000 5.03029
8740.000 5.08242
8745.000 4.91698
8750.000 4.93164
8755.000 4.95150
8760.000 4.97914
8765.000 5.03481
8770.000 4.95250
8775.000 5.00183
8780.000 4.97522
8785.000 5.01077
8790.000 5.01640
8795.000 5.00203
8800.000 5.01640
8805.000 4.98885
8810.000 5.00226
8815.000 4.91281
8820.000 4.96208
8825.000 4.98354
8830.000 4.95682
8835.000 4.93573
8840.000 4.86826
8845.000 4.84157
8850.000 4.78304
8855.000 4.69377
8860.000 4.62070
8865.000 4.58903
8870.000 4.61875
8875.000 4.66710
8880.000 4.69414
8885.000 4.69485
8890.000 4.71691
8895.000 4.74878
8900.000 4.70980
8905.000 4.73895
8910.000 4.70651
8915.000 4.69068
8920.000 4.70140
8925.000 4.67805
8930.000 4.87938
8935.000 4.87949
8940.000 4.93767
8945.000 4.84443
8950.000 4.76913
8955.000 4.69717
8960.000 4.65567
8965.000 4.61212
8970.000 4.53139
8975.000 4.54279
8980.000 4.50487
8985.000 4.49281
8990.000 4.33049
8995.000 4.38796
9000.000 4.39648
9005.000 4.31732
9010.000 4.36302
9015.000 4.37822
9020.000 4.37502
9025.000 4.57820
9030.000 4.66816
9035.000 4.76807
9040.000 4.68199
9045.000 4.74546
9050.000 4.69751
9055.000 4.56354
9060.000 4.51587
9065.000 4.46881
9070.000 4.37625
9075.000 4.40319
9080.000 4.40228
9085.000 4.40402
9090.000 4.44349
9095.000 4.49338
9100.000 4.47229
9105.000 4.37965
9110.000 4.45895
9115.000 4.49976
9120.000 4.47510
9125.000 4.42909
9130.000 4.37805
9135.000 4.32947
9140.000 4.36782
9145.000 4.35601
9150.000 4.29837
9155.000 4.06953
9160.000 4.28426
9165.000 4.31832
9170.000 4.29180
9175.000 4.29457
9180.000 4.41574
9185.000 4.47304
9190.000 4.43089
9195.000 4.34267
9200.000 4.33810
9205.000 4.49630
9210.000 4.37327
9215.000 4.29066
9220.000 4.25968
9225.000 4.18904
9230.000 4.24002
9235.000 4.15289
9240.000 4.15775
9245.000 4.10959
9250.000 4.17163
9255.000 4.30960
9260.000 4.17881
9265.000 4.36319
9270.000 4.41740
9275.000 4.54122
9280.000 4.45672
9285.000 4.34793
9290.000 4.64324
9295.000 4.62907
9300.000 4.53991
9305.000 4.44783
9310.000 4.19472
9315.000 4.11662
9320.000 3.87520
9325.000 3.99314
9330.000 3.96582
9335.000 3.94522
9340.000 3.98151
9345.000 3.69737
9350.000 3.81636
9355.000 3.58749
9360.000 3.80550
9365.000 3.84385
9370.000 3.74263
9375.000 3.92916
9380.000 3.94745
9385.000 4.27048
9390.000 4.48052
9395.000 4.51633
9400.000 4.50513
9405.000 4.44335
9410.000 4.38522
9415.000 4.04395
9420.000 4.06107
9425.000 3.90875
9430.000 3.72903
9435.000 3.80822
9440.000 3.49681
9445.000 3.71211
9450.000 3.88118
9455.000 3.90329
9460.000 3.80450
9465.000 3.84746
9470.000 3.81899
9475.000 3.87306
9480.000 3.79544
9485.000 3.66745
9490.000 3.82802
9495.000 3.84983
9500.000 3.73072
9505.000 3.92413
9510.000 3.88146
9515.000 4.07196
9520.000 3.78610
9525.000 3.84460
9530.000 3.88489
9535.000 3.81193
9540.000 3.78801
9545.000 3.71206
9550.000 3.65410
9555.000 3.58946
9560.000 3.62478
9565.000 3.63573
9570.000 3.63336
9575.000 3.69520
9580.000 3.73132
9585.000 3.72243
9590.000 3.64010
9595.000 3.62598
9600.000 3.72617
9605.000 3.65070
9610.000 3.72732
9615.000 3.63841
9620.000 3.59835
9625.000 3.56391
9630.000 3.67051
9635.000 3.42609
9640.000 3.43037
9645.000 3.33287
9650.000 3.52508
9655.000 3.58677
9660.000 3.47204
9665.000 3.53676
9670.000 3.58955
9675.000 3.57866
9680.000 3.53871
9685.000 3.60235
9690.000 3.65716
9695.000 3.61089
9700.000 3.65587
9705.000 3.41394
9710.000 3.38893
9715.000 3.44875
9720.000 3.50882
9725.000 3.37487
9730.000 3.33512
9735.000 3.45180
9740.000 3.45258
9745.000 3.52210
9750.000 3.29183
9755.000 3.53848
9760.000 3.52771
9765.000 3.24002
9770.000 3.36742
9775.000 3.28932
9780.000 3.27508
9785.000 3.48987
9790.000 3.43009
9795.000 3.35881
9800.000 3.17789
9805.000 3.56243
9810.000 3.36827
9815.000 3.26725
9820.000 3.29303
9825.000 3.35056
9830.000 3.46878
9835.000 3.21967
9840.000 3.43400
9845.000 3.33129
9850.000 3.28749
9855.000 3.46987
9860.000 3.02923
9865.000 3.25622
9870.000 3.14451
9875.000 3.31441
9880.000 3.25668
9885.000 3.02392
9890.000 3.24091
9895.000 3.32598
9900.000 3.30306
9905.000 3.13043
9910.000 3.20864
9915.000 3.33321
9920.000 3.19244
9925.000 3.35018
9930.000 3.04998
9935.000 3.05450
9940.000 3.28977
9945.000 3.19315
9950.000 3.15580
9955.000 3.17755
9960.000 3.32466
9965.000 3.24228
9970.000 3.05807
9975.000 3.07959
9980.000 3.11911
9985.000 3.32401
9990.000 3.01575
9995.000 3.13277
10000.000 2.88152
10005.000 3.14966
10010.000 3.27820
10015.000 3.11051
10020.000 2.76815
10025.000 3.10291
10030.000 3.22233
10035.000 3.10368
10040.000 2.68871
10045.000 2.70728
10050.000 2.96977
10055.000 2.86086
10060.000 2.71914
10065.000 2.82379
10070.000 2.98100
10075.000 3.14277
10080.000 3.15134
10085.000 3.14897
10090.000 2.89189
10095.000 3.00183
10100.000 2.98225
10105.000 2.77798
10110.000 2.59926
10115.000 2.93027
10120.000 2.84988
10125.000 2.80862
10130.000 2.61144
10135.000 2.89135
10140.000 2.86254
10145.000 2.87980
10150.000 2.91264
10155.000 2.94270
10160.000 2.95176
10165.000 2.92790
10170.000 2.88478
10175.000 2.84254
10180.000 2.82122
10185.000 2.83471
10190.000 2.87215
10195.000 2.91641
10200.000 2.95039
10205.000 2.96176
10210.000 2.95739
10215.000 2.94885
10220.000 2.94779
10225.000 2.96236
10230.000 2.98725
10235.000 3.01372
10240.000 3.03301
10245.000 3.03806
10250.000 3.02895
10255.000 3.00743
10260.000 2.97525
10265.000 2.93504
10270.000 2.89301
10275.000 2.85623
10280.000 2.83179
10285.000 2.82405
10290.000 2.82657
10295.000 2.83017
10300.000 2.82568
10305.000 2.79879
10310.000 2.78313
10315.000 2.76790
10320.000 2.75761
10325.000 2.75567
10330.000 2.76075
10335.000 2.77047
10340.000 2.78233
10345.000 2.79350
10350.000 2.79965
10355.000 2.79596
10360.000 2.77773
10365.000 2.74283
10370.000 2.69977
10375.000 2.65973
10380.000 2.63387
10385.000 2.63030
10390.000 2.64461
10395.000 2.66942
10400.000 2.69725
10405.000 2.72137
10410.000 2.73800
10415.000 2.74403
10420.000 2.73640
10425.000 2.71431
10430.000 2.68634
10435.000 2.66336
10440.000 2.65627
10445.000 2.67162
10450.000 2.69877
10455.000 2.72272
10460.000 2.72855
10465.000 2.70620
10470.000 2.66533
10475.000 2.62041
10480.000 2.58606
10485.000 2.57309
10490.000 2.57772
10495.000 2.59243
10500.000 2.60975
10505.000 2.62332
10510.000 2.63141
10515.000 2.63347
10520.000 2.62893
10525.000 2.61798
10530.000 2.60375
10535.000 2.59018
10540.000 2.58112
10545.000 2.57914
10550.000 2.58129
10555.000 2.58326
10560.000 2.58072
10565.000 2.57094
10570.000 2.55748
10575.000 2.54557
10580.000 2.54031
10585.000 2.54514
10590.000 2.55637
10595.000 2.56857
10600.000 2.57632
10605.000 2.57549
10610.000 2.56723
10615.000 2.55400
10620.000 2.53831
10625.000 2.51087
10630.000 2.50664
10635.000 2.50241
10640.000 2.49819
10645.000 2.49396
10650.000 2.48973
10655.000 2.48550
10660.000 2.48127
10665.000 2.47707
10670.000 2.47287
10675.000 2.46867
10680.000 2.46446
10685.000 2.46026
10690.000 2.45606
10695.000 2.45186
10700.000 2.44769
10705.000 2.44352
10710.000 2.43935
10715.000 2.43517
10720.000 2.43100
10725.000 2.42683
10730.000 2.42266
10735.000 2.41851
10740.000 2.41437
10745.000 2.41022
10750.000 2.40608
10755.000 2.40194
10760.000 2.39779
10765.000 2.39365
10770.000 2.38954
10775.000 2.38542
10780.000 2.38130
10785.000 2.37719
10790.000 2.37307
10795.000 2.36896
10800.000 2.36484
10805.000 2.36076
10810.000 2.35667
10815.000 2.35258
10820.000 2.34850
10825.000 2.34441
10830.000 2.34033
10835.000 2.33627
10840.000 2.33218
10845.000 2.32812
10850.000 2.32406
10855.000 2.32001
10860.000 2.31595
10865.000 2.31192
10870.000 2.30786
10875.000 2.30383
10880.000 2.29980
10885.000 2.29577
10890.000 2.29174
10895.000 2.28771
10900.000 2.28369
10905.000 2.27968
10910.000 2.27568
10915.000 2.27168
10920.000 2.26768
10925.000 2.26368
10930.000 2.25968
10935.000 2.25571
10940.000 2.25171
10945.000 2.24774
10950.000 2.24376
10955.000 2.23979
10960.000 2.23582
10965.000 2.23187
10970.000 2.22790
10975.000 2.22396
10980.000 2.22002
10985.000 2.21607
10990.000 2.21213
10995.000 2.20818
11000.000 2.20424
11005.000 2.20033
11010.000 2.19641
11015.000 2.19250
11020.000 2.18858
11025.000 2.18467
11030.000 2.18075
11035.000 2.17686
11040.000 2.17295
11045.000 2.16906
11050.000 2.16518
11055.000 2.16129
11060.000 2.15743
11065.000 2.15354
11070.000 2.14969
11075.000 2.14580
11080.000 2.14194
11085.000 2.13808
11090.000 2.13426
11095.000 2.13040
11100.000 2.12657
11105.000 2.12271
11110.000 2.11888
11115.000 2.11505
11120.000 2.11122
11125.000 2.10742
11130.000 2.10359
11135.000 2.09979
11140.000 2.09596
11145.000 2.09216
11150.000 2.08839
11155.000 2.08459
11160.000 2.08079
11165.000 2.07702
11170.000 2.07324
11175.000 2.06944
11180.000 2.06570
11185.000 2.06193
11190.000 2.05815
11195.000 2.05441
11200.000 2.05064
11205.000 2.04690
11210.000 2.04315
11215.000 2.03941
11220.000 2.03569
11225.000 2.03195
11230.000 2.02823
11235.000 2.02452
11240.000 2.02080
11245.000 2.01709
11250.000 2.01337
11255.000 2.00969
11260.000 2.00597
11265.000 2.00229
11270.000 1.99860
11275.000 1.99491
11280.000 1.99126
11285.000 1.98757
11290.000 1.98391
11295.000 1.98022
11300.000 1.97657
11305.000 1.97291
11310.000 1.96928
11315.000 1.96562
11320.000 1.96199
11325.000 1.95833
11330.000 1.95471
11335.000 1.95110
11340.000 1.94748
11345.000 1.94385
11350.000 1.94025
11355.000 1.93664
11360.000 1.93302
11365.000 1.92944
11370.000 1.92584
11375.000 1.92224
11380.000 1.91867
11385.000 1.91507
11390.000 1.91150
11395.000 1.90792
11400.000 1.90438
11405.000 1.90081
11410.000 1.89727
11415.000 1.89369
11420.000 1.89015
11425.000 1.88661
11430.000 1.88309
11435.000 1.87955
11440.000 1.87603
11445.000 1.87249
11450.000 1.86897
11455.000 1.86546
11460.000 1.86197
11465.000 1.85846
11470.000 1.85497
11475.000 1.85148
11480.000 1.84797
11485.000 1.84451
11490.000 1.84103
11495.000 1.83754
11500.000 1.83408
11505.000 1.83062
11510.000 1.82717
11515.000 1.82371
11520.000 1.82025
11525.000 1.81682
11530.000 1.81336
11535.000 1.80993
11540.000 1.80650
11545.000 1.80307
11550.000 1.79967
11555.000 1.79624
11560.000 1.79284
11565.000 1.78944
11570.000 1.78604
11575.000 1.78264
11580.000 1.77924
11585.000 1.77587
11590.000 1.77247
11595.000 1.76910
11600.000 1.76572
11605.000 1.76238
11610.000 1.75901
11615.000 1.75567
11620.000 1.75229
11625.000 1.74895
11630.000 1.74561
11635.000 1.74229
11640.000 1.73895
11645.000 1.73563
11650.000 1.73232
11655.000 1.72900
11660.000 1.72569
11665.000 1.72237
11670.000 1.71909
11675.000 1.71577
11680.000 1.71249
11685.000 1.70920
11690.000 1.70594
11695.000 1.70265
11700.000 1.69940
11705.000 1.69611
11710.000 1.69285
11715.000 1.68960
11720.000 1.68637
11725.000 1.68311
11730.000 1.67988
11735.000 1.67665
11740.000 1.67342
11745.000 1.67019
11750.000 1.66696
11755.000 1.66376
11760.000 1.66053
11765.000 1.65733
11770.000 1.65413
11775.000 1.65096
11780.000 1.64776
11785.000 1.64459
11790.000 1.64139
11795.000 1.63821
11800.000 1.63507
11805.000 1.63190
11810.000 1.62875
11815.000 1.62558
11820.000 1.62244
11825.000 1.61930
11830.000 1.61615
11835.000 1.61304
11840.000 1.60989
11845.000 1.60678
11850.000 1.60366
11855.000 1.60055
11860.000 1.59746
11865.000 1.59435
11870.000 1.59126
11875.000 1.58817
11880.000 1.58509
11885.000 1.58200
11890.000 1.57894
11895.000 1.57586
11900.000 1.57280
11905.000 1.56974
11910.000 1.56668
11915.000 1.56366
11920.000 1.56060
11925.000 1.55757
11930.000 1.55454
11935.000 1.55151
11940.000 1.54848
11945.000 1.54548
11950.000 1.54248
11955.000 1.53945
11960.000 1.53645
11965.000 1.53348
11970.000 1.53048
11975.000 1.52751
11980.000 1.52450
11985.000 1.52153
11990.000 1.51859
11995.000 1.51562
12000.000 1.51265
12005.000 1.50970
12010.000 1.50676
12015.000 1.50382
12020.000 1.50090
12025.000 1.49796
12030.000 1.49504
12035.000 1.49213
12040.000 1.48921
12045.000 1.48630
12050.000 1.48338
12055.000 1.48050
12060.000 1.47761
12065.000 1.47472
12070.000 1.47184
12075.000 1.46895
12080.000 1.46609
12085.000 1.46324
12090.000 1.46038
12095.000 1.45752
12100.000 1.45466
12105.000 1.45183
12110.000 1.44898
12115.000 1.44615
12120.000 1.44332
12125.000 1.44052
12130.000 1.43769
12135.000 1.43489
12140.000 1.43209
12145.000 1.42929
12150.000 1.42649
12155.000 1.42368
12160.000 1.42091
12165.000 1.41814
12170.000 1.41537
12175.000 1.41260
12180.000 1.40982
12185.000 1.40708
12190.000 1.40434
12195.000 1.40159
12200.000 1.39885
12205.000 1.39611
12210.000 1.39339
12215.000 1.39068
12220.000 1.38796
12225.000 1.38525
12230.000 1.38253
12235.000 1.37985
12240.000 1.37716
12245.000 1.37447
12250.000 1.37179
12255.000 1.36910
12260.000 1.36644
12265.000 1.36376
12270.000 1.36110
12275.000 1.35844
12280.000 1.35581
12285.000 1.35316
12290.000 1.35053
12295.000 1.34790
12300.000 1.34527
12305.000 1.34264
12310.000 1.34001
12315.000 1.33741
12320.000 1.33481
12325.000 1.33221
12330.000 1.32961
12335.000 1.32704
12340.000 1.32444
12345.000 1.32186
12350.000 1.31929
12355.000 1.31672
12360.000 1.31415
12365.000 1.31161
12370.000 1.30906
12375.000 1.30649
12380.000 1.30398
12385.000 1.30143
12390.000 1.29889
12395.000 1.29637
12400.000 1.29386
12405.000 1.29134
12410.000 1.28883
12415.000 1.28631
12420.000 1.28383
12425.000 1.28134
12430.000 1.27886
12435.000 1.27637
12440.000 1.27388
12445.000 1.27143
12450.000 1.26894
12455.000 1.26648
12460.000 1.26402
12465.000 1.26160
12470.000 1.25914
12475.000 1.25671
12480.000 1.25428
12485.000 1.25185
12490.000 1.24942
12495.000 1.24699
12500.000 1.24459
12505.000 1.24216
12510.000 1.23976
12515.000 1.23736
12520.000 1.23496
12525.000 1.23259
12530.000 1.23022
12535.000 1.22782
12540.000 1.22545
12545.000 1.22307
12550.000 1.22073
12555.000 1.21836
12560.000 1.21601
12565.000 1.21367
12570.000 1.21133
12575.000 1.20898
12580.000 1.20667
12585.000 1.20433
12590.000 1.20201
12595.000 1.19970
12600.000 1.19738
12605.000 1.19507
12610.000 1.19278
12615.000 1.19047
12620.000 1.18818
12625.000 1.18589
12630.000 1.18364
12635.000 1.18135
12640.000 1.17906
12645.000 1.17681
12650.000 1.17455
12655.000 1.17229
12660.000 1.17003
12665.000 1.16780
12670.000 1.16555
12675.000 1.16332
12680.000 1.16109
12685.000 1.15886
12690.000 1.15663
12695.000 1.15443
12700.000 1.15220
12705.000 1.15000
12710.000 1.14780
12715.000 1.14560
12720.000 1.14343
12725.000 1.14123
12730.000 1.13906
12735.000 1.13688
12740.000 1.13471
12745.000 1.13254
12750.000 1.13037
12755.000 1.12823
12760.000 1.12605
12765.000 1.12391
12770.000 1.12177
12775.000 1.11965
12780.000 1.11751
12785.000 1.11537
12790.000 1.11325
12795.000 1.11114
12800.000 1.10902
12805.000 1.10691
12810.000 1.10482
12815.000 1.10271
12820.000 1.10062
12825.000 1.09853
12830.000 1.09645
12835.000 1.09436
12840.000 1.09228
12845.000 1.09022
12850.000 1.08816
12855.000 1.08610
12860.000 1.08405
12865.000 1.08199
12870.000 1.07993
12875.000 1.07790
12880.000 1.07584
12885.000 1.07381
12890.000 1.07179
12895.000 1.06976
12900.000 1.06776
12905.000 1.06573
12910.000 1.06373
12915.000 1.06173
12920.000 1.05973
12925.000 1.05773
12930.000 1.05573
12935.000 1.05375
12940.000 1.05178
12945.000 1.04978
12950.000 1.04781
12955.000 1.04587
12960.000 1.04389
12965.000 1.04192
12970.000 1.03998
12975.000 1.03804
12980.000 1.03609
12985.000 1.03415
12990.000 1.03221
12995.000 1.03026
13000.000 1.02835
13005.000 1.02643
13010.000 1.02452
13015.000 1.02260
13020.000 1.02069
13025.000 1.01878
13030.000 1.01689
13035.000 1.01500
13040.000 1.01309
13045.000 1.01123
13050.000 1.00934
13055.000 1.00746
13060.000 1.00557
13065.000 1.00372
13070.000 1.00186
13075.000 1.00000
13080.000 0.99814
13085.000 0.99628
13090.000 0.99446
13095.000 0.99260
13100.000 0.99077
13105.000 0.98894
13110.000 0.98711
13115.000 0.98528
13120.000 0.98345
13125.000 0.98165
13130.000 0.97985
13135.000 0.97802
13140.000 0.97622
13145.000 0.97442
13150.000 0.97265
13155.000 0.97085
13160.000 0.96908
13165.000 0.96728
13170.000 0.96551
13175.000 0.96374
13180.000 0.96196
13185.000 0.96022
13190.000 0.95845
13195.000 0.95671
13200.000 0.95496
13205.000 0.95319
13210.000 0.95148
13215.000 0.94973
13220.000 0.94799
13225.000 0.94627
13230.000 0.94453
13235.000 0.94282
13240.000 0.94110
13245.000 0.93939
13250.000 0.93767
13255.000 0.93599
13260.000 0.93427
13265.000 0.93259
13270.000 0.93090
13275.000 0.92921
13280.000 0.92753
13285.000 0.92584
13290.000 0.92418
13295.000 0.92250
13300.000 0.92084
13305.000 0.91918
13310.000 0.91753
13315.000 0.91587
13320.000 0.91421
13325.000 0.91258
13330.000 0.91093
13335.000 0.90930
13340.000 0.90767
13345.000 0.90604
13350.000 0.90441
13355.000 0.90281
13360.000 0.90118
13365.000 0.89958
13370.000 0.89795
13375.000 0.89635
13380.000 0.89475
13385.000 0.89315
13390.000 0.89158
13395.000 0.88998
13400.000 0.88841
13405.000 0.88681
13410.000 0.88523
13415.000 0.88366
13420.000 0.88209
13425.000 0.88055
13430.000 0.87898
13435.000 0.87743
13440.000 0.87586
13445.000 0.87432
13450.000 0.87277
13455.000 0.87123
13460.000 0.86972
13465.000 0.86817
13470.000 0.86663
13475.000 0.86512
13480.000 0.86360
13485.000 0.86209
13490.000 0.86057
13495.000 0.85906
13500.000 0.85757
13505.000 0.85606
13510.000 0.85457
13515.000 0.85306
13520.000 0.85157
13525.000 0.85008
13530.000 0.84860
13535.000 0.84714
13540.000 0.84565
13545.000 0.84420
13550.000 0.84271
13555.000 0.84125
13560.000 0.83980
13565.000 0.83834
13570.000 0.83691
13575.000 0.83545
13580.000 0.83400
13585.000 0.83257
13590.000 0.83114
13595.000 0.82971
13600.000 0.82828
13605.000 0.82685
13610.000 0.82542
13615.000 0.82402
13620.000 0.82259
13625.000 0.82119
13630.000 0.81979
13635.000 0.81839
13640.000 0.81699
13645.000 0.81559
13650.000 0.81419
13655.000 0.81282
13660.000 0.81142
13665.000 0.81005
13670.000 0.80868
13675.000 0.80730
13680.000 0.80593
13685.000 0.80456
13690.000 0.80322
13695.000 0.80185
13700.000 0.80050
13705.000 0.79913
13710.000 0.79779
13715.000 0.79645
13720.000 0.79510
13725.000 0.79379
13730.000 0.79244
13735.000 0.79110
13740.000 0.78979
13745.000 0.78847
13750.000 0.78716
13755.000 0.78584
13760.000 0.78453
13765.000 0.78321
13770.000 0.78190
13775.000 0.78061
13780.000 0.77933
13785.000 0.77801
13790.000 0.77673
13795.000 0.77544
13800.000 0.77415
13805.000 0.77287
13810.000 0.77161
13815.000 0.77033
13820.000 0.76907
13825.000 0.76781
13830.000 0.76652
13835.000 0.76527
13840.000 0.76401
13845.000 0.76278
13850.000 0.76152
13855.000 0.76027
13860.000 0.75904
13865.000 0.75781
13870.000 0.75655
13875.000 0.75532
13880.000 0.75409
13885.000 0.75289
13890.000 0.75166
13895.000 0.75044
13900.000 0.74924
13905.000 0.74801
13910.000 0.74681
13915.000 0.74561
13920.000 0.74441
13925.000 0.74321
13930.000 0.74201
13935.000 0.74083
13940.000 0.73963
13945.000 0.73846
13950.000 0.73726
13955.000 0.73609
13960.000 0.73492
13965.000 0.73375
13970.000 0.73258
13975.000 0.73140
13980.000 0.73026
13985.000 0.72909
13990.000 0.72795
13995.000 0.72677
14000.000 0.72563
14005.000 0.72449
14010.000 0.72334
14015.000 0.72220
14020.000 0.72109
14025.000 0.71994
14030.000 0.71880
14035.000 0.71769
14040.000 0.71657
14045.000 0.71546
14050.000 0.71434
14055.000 0.71323
14060.000 0.71211
14065.000 0.71100
14070.000 0.70988
14075.000 0.70880
14080.000 0.70771
14085.000 0.70660
14090.000 0.70551
14095.000 0.70443
14100.000 0.70334
14105.000 0.70225
14110.000 0.70117
14115.000 0.70011
14120.000 0.69903
14125.000 0.69797
14130.000 0.69688
14135.000 0.69582
14140.000 0.69477
14145.000 0.69371
14150.000 0.69265
14155.000 0.69160
14160.000 0.69057
14165.000 0.68951
14170.000 0.68848
14175.000 0.68742
14180.000 0.68639
14185.000 0.68537
14190.000 0.68434
14195.000 0.68331
14200.000 0.68228
14205.000 0.68125
14210.000 0.68025
14215.000 0.67922
14220.000 0.67822
14225.000 0.67722
14230.000 0.67619
14235.000 0.67519
14240.000 0.67419
14245.000 0.67319
14250.000 0.67219
14255.000 0.67122
14260.000 0.67022
14265.000 0.66925
14270.000 0.66825
14275.000 0.66728
14280.000 0.66630
14285.000 0.66533
14290.000 0.66436
14295.000 0.66339
14300.000 0.66242
14305.000 0.65830
14310.000 0.65262
14315.000 0.64853
14320.000 0.64750
14325.000 0.65036
14330.000 0.65722
14335.000 0.66593
14340.000 0.67265
14345.000 0.67499
14350.000 0.67251
14355.000 0.66582
14360.000 0.65667
14365.000 0.64773
14370.000 0.64181
14375.000 0.64090
14380.000 0.64453
14385.000 0.65016
14390.000 0.65493
14395.000 0.65685
14400.000 0.65513
14405.000 0.65027
14410.000 0.64361
14415.000 0.63736
14420.000 0.63350
14425.000 0.63281
14430.000 0.63458
14435.000 0.63701
14440.000 0.63841
14445.000 0.63798
14450.000 0.63570
14455.000 0.63216
14460.000 0.62853
14465.000 0.62627
14470.000 0.62587
14475.000 0.62638
14480.000 0.62635
14485.000 0.62507
14490.000 0.62281
14495.000 0.62090
14500.000 0.61578
14505.000 0.62112
14510.000 0.62738
14515.000 0.63107
14520.000 0.63216
14525.000 0.63216
14530.000 0.63170
14535.000 0.63061
14540.000 0.62921
14545.000 0.62827
14550.000 0.62798
14555.000 0.62690
14560.000 0.62364
14565.000 0.61830
14570.000 0.61269
14575.000 0.60875
14580.000 0.60744
14585.000 0.60829
14590.000 0.60964
14595.000 0.60935
14600.000 0.60586
14605.000 0.59918
14610.000 0.59152
14615.000 0.58652
14620.000 0.58726
14625.000 0.59438
14630.000 0.60549
14635.000 0.61621
14640.000 0.62175
14645.000 0.61878
14650.000 0.60695
14655.000 0.58972
14660.000 0.57366
14665.000 0.56617
14670.000 0.56823
14675.000 0.57772
14680.000 0.58897
14685.000 0.59701
14690.000 0.59872
14695.000 0.59015
14700.000 0.57303
14705.000 0.55528
14710.000 0.54502
14715.000 0.54671
14720.000 0.55825
14725.000 0.57314
14730.000 0.58260
14735.000 0.58366
14740.000 0.57863
14745.000 0.56971
14750.000 0.56034
14755.000 0.55425
14760.000 0.55368
14765.000 0.55854
14770.000 0.56626
14775.000 0.57389
14780.000 0.57763
14785.000 0.57746
14790.000 0.57417
14795.000 0.57034
14800.000 0.56829
14805.000 0.56874
14810.000 0.57080
14815.000 0.57249
14820.000 0.57197
14825.000 0.56851
14830.000 0.56274
14835.000 0.55654
14840.000 0.55211
14845.000 0.55065
14850.000 0.55268
14855.000 0.55754
14860.000 0.56311
14865.000 0.56688
14870.000 0.56708
14875.000 0.56334
14880.000 0.55688
14885.000 0.54977
14890.000 0.54465
14895.000 0.54314
14900.000 0.54731
14905.000 0.55508
14910.000 0.56431
14915.000 0.57169
14920.000 0.57491
14925.000 0.57323
14930.000 0.56754
14935.000 0.56014
14940.000 0.55448
14945.000 0.55220
14950.000 0.55294
14955.000 0.55657
14960.000 0.56171
14965.000 0.56643
14970.000 0.57009
14975.000 0.57303
14980.000 0.57491
14985.000 0.57517
14990.000 0.57354
14995.000 0.56909
15000.000 0.56371
15005.000 0.55840
15010.000 0.55214
15015.000 0.54565
15020.000 0.54039
15025.000 0.53702
15030.000 0.53605
15035.000 0.53711
15040.000 0.53942
15045.000 0.54294
15050.000 0.54545
15055.000 0.54554
15060.000 0.54331
15065.000 0.53899
15070.000 0.53314
15075.000 0.52573
15080.000 0.51873
15085.000 0.51433
15090.000 0.51313
15095.000 0.51525
15100.000 0.51999
15105.000 0.52611
15110.000 0.53196
15115.000 0.53568
15120.000 0.53602
15125.000 0.53285
15130.000 0.52753
15135.000 0.52219
15140.000 0.51945
15145.000 0.52079
15150.000 0.52548
15155.000 0.53219
15160.000 0.53759
15165.000 0.53859
15170.000 0.53488
15175.000 0.52691
15180.000 0.51659
15185.000 0.50704
15190.000 0.50130
15195.000 0.50093
15200.000 0.50544
15205.000 0.51256
15210.000 0.51959
15215.000 0.52379
15220.000 0.52362
15225.000 0.51933
15230.000 0.51273
15235.000 0.50524
15240.000 0.49901
15245.000 0.49533
15250.000 0.49421
15255.000 0.49484
15260.000 0.49613
15265.000 0.49761
15270.000 0.49930
15275.000 0.50164
15280.000 0.50510
15285.000 0.50970
15290.000 0.51327
15295.000 0.51485
15300.000 0.51347
15305.000 0.50896
15310.000 0.50233
15315.000 0.49567
15320.000 0.49107
15325.000 0.49027
15330.000 0.49344
15335.000 0.49901
15340.000 0.50424
15345.000 0.50599
15350.000 0.50241
15355.000 0.49398
15360.000 0.48287
15365.000 0.47212
15370.000 0.46489
15375.000 0.46261
15380.000 0.46672
15385.000 0.47544
15390.000 0.48593
15395.000 0.49487
15400.000 0.50047
15405.000 0.50193
15410.000 0.49996
15415.000 0.49596
15420.000 0.49147
15425.000 0.48747
15430.000 0.48421
15435.000 0.48130
15440.000 0.47801
15445.000 0.47407
15450.000 0.46987
15455.000 0.46624
15460.000 0.46429
15465.000 0.46501
15470.000 0.46832
15475.000 0.47327
15480.000 0.47835
15485.000 0.48215
15490.000 0.48375
15495.000 0.48287
15500.000 0.47992
15505.000 0.47578
15510.000 0.47144
15515.000 0.46752
15520.000 0.46458
15525.000 0.46241
15530.000 0.46035
15535.000 0.45952
15540.000 0.46021
15545.000 0.46255
15550.000 0.46635
15555.000 0.47069
15560.000 0.47438
15565.000 0.47610
15570.000 0.47487
15575.000 0.47098
15580.000 0.46564
15585.000 0.46052
15590.000 0.45729
15595.000 0.45709
15600.000 0.46021
15605.000 0.46564
15610.000 0.47167
15615.000 0.47655
15620.000 0.47884
15625.000 0.47787
15630.000 0.47387
15635.000 0.46815
15640.000 0.46244
15645.000 0.45821
15650.000 0.45598
15655.000 0.45615
15660.000 0.45715
15665.000 0.45821
15670.000 0.45898
15675.000 0.45872
15680.000 0.45592
15685.000 0.45312
15690.000 0.45052
15695.000 0.44918
15700.000 0.44889
15705.000 0.44869
15710.000 0.44723
15715.000 0.44403
15720.000 0.43957
15725.000 0.43489
15730.000 0.43189
15735.000 0.43217
15740.000 0.43552
15745.000 0.44083
15750.000 0.44786
15755.000 0.45503
15760.000 0.46029
15765.000 0.46244
15770.000 0.46112
15775.000 0.45721
15780.000 0.45209
15785.000 0.44758
15790.000 0.44497
15795.000 0.44452
15800.000 0.44600
15805.000 0.44838
15810.000 0.45038
15815.000 0.45095
15820.000 0.44966
15825.000 0.44658
15830.000 0.44220
15835.000 0.43834
15840.000 0.43586
15845.000 0.43452
15850.000 0.43449
15855.000 0.43540
15860.000 0.43709
15865.000 0.43923
15870.000 0.44135
15875.000 0.44323
15880.000 0.44489
15885.000 0.44612
15890.000 0.44663
15895.000 0.44620
15900.000 0.44489
15905.000 0.44283
15910.000 0.44063
15915.000 0.43900
15920.000 0.43826
15925.000 0.43874
15930.000 0.44006
15935.000 0.44126
15940.000 0.44297
15945.000 0.44397
15950.000 0.44352
15955.000 0.44120
15960.000 0.43743
15965.000 0.43326
15970.000 0.43046
15975.000 0.43026
15980.000 0.43203
15985.000 0.43546
15990.000 0.43969
15995.000 0.44352
16000.000 0.44549
16005.000 0.44389
16010.000 0.43914
16015.000 0.43272
16020.000 0.42623
16025.000 0.42137
16030.000 0.41911
16035.000 0.41951
16040.000 0.42163
16045.000 0.42414
16050.000 0.42640
16055.000 0.42720
16060.000 0.42557
16065.000 0.42231
16070.000 0.41843
16075.000 0.41503
16080.000 0.41260
16085.000 0.41157
16090.000 0.41208
16095.000 0.41340
16100.000 0.41474
16105.000 0.41543
16110.000 0.41523
16115.000 0.41428
16120.000 0.41305
16125.000 0.41217
16130.000 0.41203
16135.000 0.41280
16140.000 0.41445
16145.000 0.41623
16150.000 0.41717
16155.000 0.41737
16160.000 0.41585
16165.000 0.41263
16170.000 0.40868
16175.000 0.40508
16180.000 0.40271
16185.000 0.40208
16190.000 0.40314
16195.000 0.40537
16200.000 0.40777
16205.000 0.40928
16210.000 0.40922
16215.000 0.40731
16220.000 0.40391
16225.000 0.39999
16230.000 0.39657
16235.000 0.39454
16240.000 0.39448
16245.000 0.39616
16250.000 0.39885
16255.000 0.40148
16260.000 0.40317
16265.000 0.40334
16270.000 0.40199
16275.000 0.39957
16280.000 0.39699
16285.000 0.39516
16290.000 0.39479
16295.000 0.39608
16300.000 0.39871
16305.000 0.40179
16310.000 0.40434
16315.000 0.40537
16320.000 0.40422
16325.000 0.40088
16330.000 0.39588
16335.000 0.39025
16340.000 0.38513
16345.000 0.38233
16350.000 0.38148
16355.000 0.38291
16360.000 0.38639
16365.000 0.39111
16370.000 0.39631
16375.000 0.40085
16380.000 0.40265
16385.000 0.40114
16390.000 0.39725
16395.000 0.39162
16400.000 0.38533
16405.000 0.37939
16410.000 0.37430
16415.000 0.37022
16420.000 0.36750
16425.000 0.36650
16430.000 0.36707
16435.000 0.36882
16440.000 0.37182
16445.000 0.37608
16450.000 0.38099
16455.000 0.38593
16460.000 0.39019
16465.000 0.39308
16470.000 0.39416
16475.000 0.39325
16480.000 0.39051
16485.000 0.38636
16490.000 0.38119
16495.000 0.37616
16500.000 0.37210
16505.000 0.36950
16510.000 0.36867
16515.000 0.36950
16520.000 0.37159
16525.000 0.37425
16530.000 0.37679
16535.000 0.37850
16540.000 0.37896
16545.000 0.37805
16550.000 0.37599
16555.000 0.37327
16560.000 0.37045
16565.000 0.36810
16570.000 0.36650
16575.000 0.36576
16580.000 0.36559
16585.000 0.36547
16590.000 0.36507
16595.000 0.36407
16600.000 0.36216
16605.000 0.35944
16610.000 0.35627
16615.000 0.35324
16620.000 0.35098
16625.000 0.35016
16630.000 0.35090
16635.000 0.35361
16640.000 0.35853
16645.000 0.36459
16650.000 0.37122
16655.000 0.37730
16660.000 0.38156
16665.000 0.38308
16670.000 0.38156
16675.000 0.37733
16680.000 0.37125
16685.000 0.36430
16690.000 0.35756
16695.000 0.35193
16700.000 0.34810
16705.000 0.34658
16710.000 0.34713
16715.000 0.34933
16720.000 0.35264
16725.000 0.35624
16730.000 0.35933
16735.000 0.36096
16740.000 0.36087
16745.000 0.36021
16750.000 0.35904
16755.000 0.35750
16760.000 0.35619
16765.000 0.35579
16770.000 0.35661
16775.000 0.35853
16780.000 0.36073
16785.000 0.36239
16790.000 0.36279
16795.000 0.36164
16800.000 0.35853
16805.000 0.35376
16810.000 0.34816
16815.000 0.34275
16820.000 0.33855
16825.000 0.33635
16830.000 0.33650
16835.000 0.33870
16840.000 0.34233
16845.000 0.34627
16850.000 0.34938
16855.000 0.35101
16860.000 0.35101
16865.000 0.34967
16870.000 0.34761
16875.000 0.34547
16880.000 0.34375
16885.000 0.34335
16890.000 0.34438
16895.000 0.34615
16900.000 0.34804
16905.000 0.34947
16910.000 0.34978
16915.000 0.34876
16920.000 0.34656
16925.000 0.34373
16930.000 0.34081
16935.000 0.33887
16940.000 0.33798
16945.000 0.33801
16950.000 0.33912
16955.000 0.34067
16960.000 0.34221
16965.000 0.34318
16970.000 0.34307
16975.000 0.34173
16980.000 0.33973
16985.000 0.33767
16990.000 0.33587
16995.000 0.33467
17000.000 0.33441
17005.000 0.33507
17010.000 0.33615
17015.000 0.33710
17020.000 0.33744
17025.000 0.33670
17030.000 0.33481
17035.000 0.33198
17040.000 0.32844
17045.000 0.32492
17050.000 0.32229
17055.000 0.32098
17060.000 0.32118
17065.000 0.32275
17070.000 0.32535
17075.000 0.32849
17080.000 0.33147
17085.000 0.33395
17090.000 0.33544
17095.000 0.33561
17100.000 0.33498
17105.000 0.33355
17110.000 0.33167
17115.000 0.32961
17120.000 0.32755
17125.000 0.32575
17130.000 0.32426
17135.000 0.32321
17140.000 0.32258
17145.000 0.32235
17150.000 0.32249
17155.000 0.32289
17160.000 0.32344
17165.000 0.32406
17170.000 0.32455
17175.000 0.32472
17180.000 0.32441
17185.000 0.32355
17190.000 0.32218
17195.000 0.32046
17200.000 0.31866
17205.000 0.31712
17210.000 0.31618
17215.000 0.31589
17220.000 0.31626
17225.000 0.31738
17230.000 0.31909
17235.000 0.32106
17240.000 0.32286
17245.000 0.32435
17250.000 0.32507
17255.000 0.32512
17260.000 0.32484
17265.000 0.32386
17270.000 0.32244
17275.000 0.32084
17280.000 0.31932
17285.000 0.31812
17290.000 0.31741
17295.000 0.31723
17300.000 0.31758
17305.000 0.31838
17310.000 0.31949
17315.000 0.32058
17320.000 0.32129
17325.000 0.32126
17330.000 0.32049
17335.000 0.31918
17340.000 0.31741
17345.000 0.31523
17350.000 0.31295
17355.000 0.31063
17360.000 0.30843
17365.000 0.30643
17370.000 0.30472
17375.000 0.30360
17380.000 0.30323
17385.000 0.30335
17390.000 0.30395
17395.000 0.30503
17400.000 0.30638
17405.000 0.30772
17410.000 0.30883
17415.000 0.30963
17420.000 0.30989
17425.000 0.30978
17430.000 0.30923
17435.000 0.30872
17440.000 0.30898
17445.000 0.30923
17450.000 0.30918
17455.000 0.30855
17460.000 0.30726
17465.000 0.30535
17470.000 0.30300
17475.000 0.30046
17480.000 0.29812
17485.000 0.29626
17490.000 0.29512
17495.000 0.29477
17500.000 0.29514
17505.000 0.29597
17510.000 0.29695
17515.000 0.29775
17520.000 0.29812
17525.000 0.29800
17530.000 0.29743
17535.000 0.29666
17540.000 0.29603
17545.000 0.29583
17550.000 0.29634
17555.000 0.29772
17560.000 0.29992
17565.000 0.30255
17570.000 0.30532
17575.000 0.30760
17580.000 0.30860
17585.000 0.30832
17590.000 0.30666
17595.000 0.30363
17600.000 0.29966
17605.000 0.29520
17610.000 0.29083
17615.000 0.28703
17620.000 0.28417
17625.000 0.28249
17630.000 0.28200
17635.000 0.28249
17640.000 0.28363
17645.000 0.28506
17650.000 0.28634
17655.000 0.28720
17660.000 0.28746
17665.000 0.28714
17670.000 0.28640
17675.000 0.28540
17680.000 0.28440
17685.000 0.28357
17690.000 0.28311
17695.000 0.28303
17700.000 0.28331
17705.000 0.28386
17710.000 0.28449
17715.000 0.28500
17720.000 0.28529
17725.000 0.28526
17730.000 0.28486
17735.000 0.28420
17740.000 0.28340
17745.000 0.28263
17750.000 0.28208
17755.000 0.28188
17760.000 0.28226
17765.000 0.28320
17770.000 0.28469
17775.000 0.28654
17780.000 0.28851
17785.000 0.29037
17790.000 0.29177
17795.000 0.29252
17800.000 0.29243
17805.000 0.29160
17810.000 0.29009
17815.000 0.28814
17820.000 0.28606
17825.000 0.28406
17830.000 0.28240
17835.000 0.28120
17840.000 0.28043
17845.000 0.28006
17850.000 0.27980
17855.000 0.27943
17860.000 0.27868
17865.000 0.27743
17870.000 0.27568
17875.000 0.27368
17880.000 0.27163
17885.000 0.26980
17890.000 0.26843
17895.000 0.26762
17900.000 0.26754
17905.000 0.26814
17910.000 0.26934
17915.000 0.27105
17920.000 0.27311
17925.000 0.27520
17930.000 0.27694
17935.000 0.27823
17940.000 0.27888
17945.000 0.27897
17950.000 0.27863
17955.000 0.27800
17960.000 0.27726
17965.000 0.27640
17970.000 0.27546
17975.000 0.27434
17980.000 0.27297
17985.000 0.27128
17990.000 0.26928
17995.000 0.26705
18000.000 0.26471
18005.000 0.26248
18010.000 0.26054
18015.000 0.25914
18020.000 0.25839
18025.000 0.25842
18030.000 0.25911
18035.000 0.26028
18040.000 0.26165
18045.000 0.26297
18050.000 0.26400
18055.000 0.26462
18060.000 0.26485
18065.000 0.26480
18070.000 0.26471
18075.000 0.26468
18080.000 0.26434
18085.000 0.26368
18090.000 0.26325
18095.000 0.26342
18100.000 0.26397
18105.000 0.26485
18110.000 0.26602
18115.000 0.26731
18120.000 0.26865
18125.000 0.26994
18130.000 0.27114
18135.000 0.27203
18140.000 0.27243
18145.000 0.27217
18150.000 0.27131
18155.000 0.27005
18160.000 0.26865
18165.000 0.26728
18170.000 0.26600
18175.000 0.26482
18180.000 0.26380
18185.000 0.26302
18190.000 0.26280
18195.000 0.26360
18200.000 0.26565
18205.000 0.26854
18210.000 0.27103
18215.000 0.27185
18220.000 0.27103
18225.000 0.26937
18230.000 0.26760
18235.000 0.26585
18240.000 0.26397
18245.000 0.26162
18250.000 0.25865
18255.000 0.25485
18260.000 0.25034
18265.000 0.24533
18270.000 0.24056
18275.000 0.23699
18280.000 0.23525
18285.000 0.23596
18290.000 0.23888
18295.000 0.24316
18300.000 0.24805
18305.000 0.25314
18310.000 0.25808
18315.000 0.26254
18320.000 0.26625
18325.000 0.26897
18330.000 0.27071
18335.000 0.27145
18340.000 0.27117
18345.000 0.26940
18350.000 0.26551
18355.000 0.25945
18360.000 0.25208
18365.000 0.24505
18370.000 0.23942
18375.000 0.23550
18380.000 0.23299
18385.000 0.23150
18390.000 0.23105
18395.000 0.23236
18400.000 0.23633
18405.000 0.24193
18410.000 0.24688
18415.000 0.24931
18420.000 0.24974
18425.000 0.24939
18430.000 0.24925
18435.000 0.24965
18440.000 0.25071
18445.000 0.25231
18450.000 0.25431
18455.000 0.25674
18460.000 0.25954
18465.000 0.26294
18470.000 0.26622
18475.000 0.26634
18480.000 0.26274
18485.000 0.25425
18490.000 0.24116
18495.000 0.23056
18500.000 0.22502
18505.000 0.22370
18510.000 0.22505
18515.000 0.22810
18520.000 0.23222
18525.000 0.23702
18530.000 0.24225
18535.000 0.24771
18540.000 0.25279
18545.000 0.25645
18550.000 0.25728
18555.000 0.25454
18560.000 0.24856
18565.000 0.24091
18570.000 0.23336
18575.000 0.22730
18580.000 0.22356
18585.000 0.22247
18590.000 0.22416
18595.000 0.22853
18600.000 0.23516
18605.000 0.24296
18610.000 0.25022
18615.000 0.25542
18620.000 0.25768
18625.000 0.25717
18630.000 0.25465
18635.000 0.25108
18640.000 0.24708
18645.000 0.24319
18650.000 0.23971
18655.000 0.23662
18660.000 0.23388
18665.000 0.23119
18670.000 0.22853
18675.000 0.22619
18680.000 0.22484
18685.000 0.22536
18690.000 0.22822
18695.000 0.23273
18700.000 0.23573
18705.000 0.23585
18710.000 0.23656
18715.000 0.23888
18720.000 0.24228
18725.000 0.24579
18730.000 0.24876
18735.000 0.25128
18740.000 0.25362
18745.000 0.25557
18750.000 0.25654
18755.000 0.25619
18760.000 0.25465
18765.000 0.25171
18770.000 0.24511
18775.000 0.23476
18780.000 0.22693
18785.000 0.22307
18790.000 0.22187
18795.000 0.22196
18800.000 0.22273
18805.000 0.22396
18810.000 0.22536
18815.000 0.22667
18820.000 0.22782
18825.000 0.22845
18830.000 0.22782
18835.000 0.22599
18840.000 0.22324
18845.000 0.22013
18850.000 0.21770
18855.000 0.21661
18860.000 0.21696
18865.000 0.21833
18870.000 0.22016
18875.000 0.22216
18880.000 0.22404
18885.000 0.22570
18890.000 0.22713
18895.000 0.22816
18900.000 0.22862
18905.000 0.22810
18910.000 0.22627
18915.000 0.22287
18920.000 0.21873
18925.000 0.21536
18930.000 0.21413
18935.000 0.21496
18940.000 0.21707
18945.000 0.21959
18950.000 0.22202
18955.000 0.22410
18960.000 0.22556
18965.000 0.22607
18970.000 0.22530
18975.000 0.22290
18980.000 0.21856
18985.000 0.21230
18990.000 0.20493
18995.000 0.19821
19000.000 0.19481
19005.000 0.19541
19010.000 0.19881
19015.000 0.20330
19020.000 0.20787
19025.000 0.21230
19030.000 0.21656
19035.000 0.22059
19040.000 0.22410
19045.000 0.22665
19050.000 0.22756
19055.000 0.22616
19060.000 0.22233
19065.000 0.21764
19070.000 0.21399
19075.000 0.21259
19080.000 0.21267
19085.000 0.21321
19090.000 0.21361
19095.000 0.21370
19100.000 0.21339
19105.000 0.21270
19110.000 0.21170
19115.000 0.21044
19120.000 0.20901
19125.000 0.20756
19130.000 0.20604
19135.000 0.20476
19140.000 0.20441
19145.000 0.20576
19150.000 0.20870
19155.000 0.21219
19160.000 0.21524
19165.000 0.21730
19170.000 0.21819
19175.000 0.21784
19180.000 0.21627
19185.000 0.21344
19190.000 0.20933
19195.000 0.20387
19200.000 0.19735
19205.000 0.19081
19210.000 0.18518
19215.000 0.18195
19220.000 0.18307
19225.000 0.18692
19230.000 0.19138
19235.000 0.19601
19240.000 0.20018
19245.000 0.20338
19250.000 0.20550
19255.000 0.20636
19260.000 0.20590
19265.000 0.20418
19270.000 0.20138
19275.000 0.19787
19280.000 0.19412
19285.000 0.19081
19290.000 0.18844
19295.000 0.18727
19300.000 0.18718
19305.000 0.18787
19310.000 0.18898
19315.000 0.19024
19320.000 0.19150
19325.000 0.19270
19330.000 0.19381
19335.000 0.19481
19340.000 0.19578
19345.000 0.19678
19350.000 0.19790
19355.000 0.19918
19360.000 0.20064
19365.000 0.20218
19370.000 0.20367
19375.000 0.20487
19380.000 0.20558
19385.000 0.20558
19390.000 0.20476
19395.000 0.20313
19400.000 0.20084
19405.000 0.19824
19410.000 0.19561
19415.000 0.19324
19420.000 0.19167
19425.000 0.19112
19430.000 0.19127
19435.000 0.19210
19440.000 0.19352
19445.000 0.19524
19450.000 0.19701
19455.000 0.19853
19460.000 0.19961
19465.000 0.19998
19470.000 0.19961
19475.000 0.19853
19480.000 0.19690
19485.000 0.19501
19490.000 0.19327
19495.000 0.19187
19500.000 0.19098
19505.000 0.19064
19510.000 0.19078
19515.000 0.19127
19520.000 0.19192
19525.000 0.19255
19530.000 0.19304
19535.000 0.19318
19540.000 0.19290
19545.000 0.19215
19550.000 0.19090
19555.000 0.18935
19560.000 0.18772
19565.000 0.18635
19570.000 0.18555
19575.000 0.18541
19580.000 0.18584
19585.000 0.18667
19590.000 0.18764
19595.000 0.18861
19600.000 0.18938
19605.000 0.18984
19610.000 0.18992
19615.000 0.18955
19620.000 0.18884
19625.000 0.18778
19630.000 0.18652
19635.000 0.18547
19640.000 0.18478
19645.000 0.18469
19650.000 0.18524
19655.000 0.18635
19660.000 0.18787
19665.000 0.18952
19670.000 0.19110
19675.000 0.19238
19680.000 0.19330
19685.000 0.19372
19690.000 0.19375
19695.000 0.19341
19700.000 0.19275
19705.000 0.19190
19710.000 0.19090
19715.000 0.18990
19720.000 0.18889
19725.000 0.18792
19730.000 0.18701
19735.000 0.18604
19740.000 0.18507
19745.000 0.18398
19750.000 0.18278
19755.000 0.18155
19760.000 0.18026
19765.000 0.17904
19770.000 0.17798
19775.000 0.17715
19780.000 0.17666
19785.000 0.17658
19790.000 0.17689
19795.000 0.17761
19800.000 0.17864
19805.000 0.17978
19810.000 0.18098
19815.000 0.18221
19820.000 0.18338
19825.000 0.18449
19830.000 0.18549
19835.000 0.18618
19840.000 0.18641
19845.000 0.18632
19850.000 0.18589
19855.000 0.18507
19860.000 0.18389
19865.000 0.18247
19870.000 0.18084
19875.000 0.17912
19880.000 0.17744
19885.000 0.17589
19890.000 0.17458
19895.000 0.17363
19900.000 0.17309
19905.000 0.17295
19910.000 0.17326
19915.000 0.17389
19920.000 0.17483
19925.000 0.17592
19930.000 0.17709
19935.000 0.17821
19940.000 0.17912
19945.000 0.17975
19950.000 0.18004
19955.000 0.17986
19960.000 0.17926
19965.000 0.17818
19970.000 0.17675
19975.000 0.17501
19980.000 0.17309
19985.000 0.17118
19990.000 0.16943
19995.000 0.16803
20000.000 0.16718
20005.000 0.16703
20010.000 0.16766
20015.000 0.16915
20020.000 0.17149
20025.000 0.17458
20030.000 0.17804
20035.000 0.18109
20040.000 0.18292
20045.000 0.18281
20050.000 0.18032
20055.000 0.17621
20060.000 0.17261
20065.000 0.17021
20070.000 0.16898
20075.000 0.16886
20080.000 0.16966
20085.000 0.17118
20090.000 0.17323
20095.000 0.17564
20100.000 0.17824
20105.000 0.18081
20110.000 0.18309
20115.000 0.18478
20120.000 0.18541
20125.000 0.18438
20130.000 0.18135
20135.000 0.17624
20140.000 0.16966
20145.000 0.16266
20150.000 0.15649
20155.000 0.15183
20160.000 0.14903
20165.000 0.14797
20170.000 0.14840
20175.000 0.14994
20180.000 0.15229
20185.000 0.15512
20190.000 0.15812
20195.000 0.16103
20200.000 0.16363
20205.000 0.16569
20210.000 0.16709
20215.000 0.16780
20220.000 0.16786
20225.000 0.16740
20230.000 0.16663
20235.000 0.16572
20240.000 0.16480
20245.000 0.16412
20250.000 0.16369
20255.000 0.16360
20260.000 0.16386
20265.000 0.16443
20270.000 0.16532
20275.000 0.16649
20280.000 0.16772
20285.000 0.16895
20290.000 0.17009
20295.000 0.17106
20300.000 0.17175
20305.000 0.17212
20310.000 0.17218
20315.000 0.17189
20320.000 0.17135
20325.000 0.17058
20330.000 0.16963
20335.000 0.16861
20340.000 0.16752
20345.000 0.16643
20350.000 0.16538
20355.000 0.16440
20360.000 0.16355
20365.000 0.16278
20370.000 0.16212
20375.000 0.16152
20380.000 0.16098
20385.000 0.16049
20390.000 0.16000
20395.000 0.15957
20400.000 0.15915
20405.000 0.15877
20410.000 0.15849
20415.000 0.15829
20420.000 0.15829
20425.000 0.15846
20430.000 0.15883
20435.000 0.15940
20440.000 0.16020
20445.000 0.16115
20450.000 0.16215
20455.000 0.16320
20460.000 0.16418
20465.000 0.16500
20470.000 0.16569
20475.000 0.16612
20480.000 0.16629
20485.000 0.16623
20490.000 0.16598
20495.000 0.16543
20500.000 0.16472
20505.000 0.16395
20510.000 0.16318
20515.000 0.16243
20520.000 0.16183
20525.000 0.16138
20530.000 0.16106
20535.000 0.16092
20540.000 0.16083
20545.000 0.16072
20550.000 0.16052
20555.000 0.16015
20560.000 0.15963
20565.000 0.15895
20570.000 0.15823
20575.000 0.15752
20580.000 0.15695
20585.000 0.15657
20590.000 0.15649
20595.000 0.15672
20600.000 0.15732
20605.000 0.15820
20610.000 0.15935
20615.000 0.16066
20620.000 0.16206
20625.000 0.16343
20630.000 0.16466
20635.000 0.16560
20640.000 0.16623
20645.000 0.16640
20650.000 0.16609
20655.000 0.16529
20660.000 0.16403
20665.000 0.16240
20670.000 0.16060
20675.000 0.15872
20680.000 0.15697
20685.000 0.15549
20690.000 0.15429
20695.000 0.15343
20700.000 0.15286
20705.000 0.15249
20710.000 0.15226
20715.000 0.15209
20720.000 0.15194
20725.000 0.15172
20730.000 0.15143
20735.000 0.15112
20740.000 0.15083
20745.000 0.15057
20750.000 0.15046
20755.000 0.15054
20760.000 0.15080
20765.000 0.15129
20770.000 0.15194
20775.000 0.15272
20780.000 0.15354
20785.000 0.15435
20790.000 0.15500
20795.000 0.15543
20800.000 0.15560
20805.000 0.15546
20810.000 0.15497
20815.000 0.15420
20820.000 0.15317
20825.000 0.15200
20830.000 0.15074
20835.000 0.14960
20840.000 0.14860
20845.000 0.14786
20850.000 0.14743
20855.000 0.14732
20860.000 0.14749
20865.000 0.14786
20870.000 0.14832
20875.000 0.14880
20880.000 0.14920
20885.000 0.14946
20890.000 0.14946
20895.000 0.14923
20900.000 0.14877
20905.000 0.14806
20910.000 0.14720
20915.000 0.14623
20920.000 0.14526
20925.000 0.14437
20930.000 0.14360
20935.000 0.14303
20940.000 0.14266
20945.000 0.14249
20950.000 0.14246
20955.000 0.14260
20960.000 0.14286
20965.000 0.14314
20970.000 0.14343
20975.000 0.14366
20980.000 0.14383
20985.000 0.14397
20990.000 0.14403
20995.000 0.14409
21000.000 0.14414
21005.000 0.14420
21010.000 0.14429
21015.000 0.14437
21020.000 0.14449
21025.000 0.14460
21030.000 0.14466
21035.000 0.14466
21040.000 0.14454
21045.000 0.14434
21050.000 0.14400
21055.000 0.14357
21060.000 0.14306
21065.000 0.14251
21070.000 0.14200
21075.000 0.14157
21080.000 0.14129
21085.000 0.14120
21090.000 0.14131
21095.000 0.14163
21100.000 0.14214
21105.000 0.14277
21110.000 0.14349
21115.000 0.14420
21120.000 0.14480
21125.000 0.14529
21130.000 0.14557
21135.000 0.14563
21140.000 0.14546
21145.000 0.14511
21150.000 0.14463
21155.000 0.14406
21160.000 0.14349
21165.000 0.14291
21170.000 0.14246
21175.000 0.14209
21180.000 0.14183
21185.000 0.14166
21190.000 0.14154
21195.000 0.14143
21200.000 0.14126
21205.000 0.14097
21210.000 0.14057
21215.000 0.14006
21220.000 0.13937
21225.000 0.13863
21230.000 0.13783
21235.000 0.13711
21240.000 0.13651
21245.000 0.13614
21250.000 0.13606
21255.000 0.13628
21260.000 0.13683
21265.000 0.13766
21270.000 0.13868
21275.000 0.13977
21280.000 0.14074
21285.000 0.14149
21290.000 0.14203
21295.000 0.14229
21300.000 0.14217
21305.000 0.14171
21310.000 0.14091
21315.000 0.13986
21320.000 0.13860
21325.000 0.13728
21330.000 0.13603
21335.000 0.13497
21340.000 0.13417
21345.000 0.13366
21350.000 0.13346
21355.000 0.13368
21360.000 0.13431
21365.000 0.13534
21370.000 0.13663
21375.000 0.13808
21380.000 0.13954
21385.000 0.14091
21390.000 0.14203
21395.000 0.14283
21400.000 0.14323
21405.000 0.14320
21410.000 0.14280
21415.000 0.14206
21420.000 0.14106
21425.000 0.13994
21430.000 0.13874
21435.000 0.13757
21440.000 0.13651
21445.000 0.13566
21450.000 0.13497
21455.000 0.13443
21460.000 0.13400
21465.000 0.13371
21470.000 0.13351
21475.000 0.13337
21480.000 0.13323
21485.000 0.13306
21490.000 0.13288
21495.000 0.13271
21500.000 0.13248
21505.000 0.13228
21510.000 0.13211
21515.000 0.13197
21520.000 0.13185
21525.000 0.13177
21530.000 0.13165
21535.000 0.13154
21540.000 0.13143
21545.000 0.13131
21550.000 0.13120
21555.000 0.13103
21560.000 0.13077
21565.000 0.13043
21570.000 0.13005
21575.000 0.12965
21580.000 0.12923
21585.000 0.12885
21590.000 0.12854
21595.000 0.12834
21600.000 0.12823
21605.000 0.12823
21610.000 0.12831
21615.000 0.12840
21620.000 0.12848
21625.000 0.12851
21630.000 0.12845
21635.000 0.12828
21640.000 0.12803
21645.000 0.12763
21650.000 0.12714
21655.000 0.12660
21660.000 0.12600
21665.000 0.12543
21670.000 0.12488
21675.000 0.12445
21680.000 0.12417
21685.000 0.12414
21690.000 0.12437
21695.000 0.12480
21700.000 0.12540
21705.000 0.12611
21710.000 0.12688
21715.000 0.12765
21720.000 0.12834
21725.000 0.12880
21730.000 0.12903
21735.000 0.12894
21740.000 0.12857
21745.000 0.12794
21750.000 0.12711
21755.000 0.12614
21760.000 0.12497
21765.000 0.12365
21770.000 0.12242
21775.000 0.12145
21780.000 0.12080
21785.000 0.12054
21790.000 0.12068
21795.000 0.12128
21800.000 0.12225
21805.000 0.12351
21810.000 0.12503
21815.000 0.12663
21820.000 0.12814
21825.000 0.12951
21830.000 0.13060
21835.000 0.13134
21840.000 0.13168
21845.000 0.13157
21850.000 0.13108
21855.000 0.13025
21860.000 0.12917
21865.000 0.12794
21870.000 0.12671
21875.000 0.12554
21880.000 0.12451
21885.000 0.12374
21890.000 0.12320
21895.000 0.12297
21900.000 0.12294
21905.000 0.12314
21910.000 0.12348
21915.000 0.12388
21920.000 0.12422
21925.000 0.12451
21930.000 0.12462
21935.000 0.12462
21940.000 0.12442
21945.000 0.12402
21950.000 0.12348
21955.000 0.12291
21960.000 0.12234
21965.000 0.12182
21970.000 0.12142
21975.000 0.12120
21980.000 0.12117
21985.000 0.12134
21990.000 0.12171
21995.000 0.12225
22000.000 0.12291
22005.000 0.12360
22010.000 0.12428
22015.000 0.12485
22020.000 0.12525
22025.000 0.12543
22030.000 0.12537
22035.000 0.12511
22040.000 0.12462
22045.000 0.12402
22050.000 0.12337
22055.000 0.12268
22060.000 0.12208
22065.000 0.12157
22070.000 0.12122
22075.000 0.12108
22080.000 0.12111
22085.000 0.12134
22090.000 0.12171
22095.000 0.12220
22100.000 0.12277
22105.000 0.12331
22110.000 0.12377
22115.000 0.12411
22120.000 0.12428
22125.000 0.12425
22130.000 0.12402
22135.000 0.12362
22140.000 0.12305
22145.000 0.12234
22150.000 0.12157
22155.000 0.12077
22160.000 0.11997
22165.000 0.11925
22170.000 0.11860
22175.000 0.11805
22180.000 0.11762
22185.000 0.11731
22190.000 0.11711
22195.000 0.11697
22200.000 0.11685
22205.000 0.11677
22210.000 0.11668
22215.000 0.11657
22220.000 0.11639
22225.000 0.11617
22230.000 0.11591
22235.000 0.11562
22240.000 0.11534
22245.000 0.11511
22250.000 0.11494
22255.000 0.11485
22260.000 0.11491
22265.000 0.11508
22270.000 0.11537
22275.000 0.11577
22280.000 0.11625
22285.000 0.11679
22290.000 0.11731
22295.000 0.11777
22300.000 0.11808
22305.000 0.11828
22310.000 0.11825
22315.000 0.11802
22320.000 0.11757
22325.000 0.11694
22330.000 0.11614
22335.000 0.11519
22340.000 0.11419
22345.000 0.11322
22350.000 0.11231
22355.000 0.11151
22360.000 0.11094
22365.000 0.11059
22370.000 0.11056
22375.000 0.11079
22380.000 0.11134
22385.000 0.11211
22390.000 0.11308
22395.000 0.11422
22400.000 0.11539
22405.000 0.11654
22410.000 0.11759
22415.000 0.11845
22420.000 0.11908
22425.000 0.11942
22430.000 0.11948
22435.000 0.11922
22440.000 0.11868
22445.000 0.11791
22450.000 0.11694
22455.000 0.11585
22460.000 0.11471
22465.000 0.11357
22470.000 0.11248
22475.000 0.11159
22480.000 0.11097
22485.000 0.11051
22490.000 0.11025
22495.000 0.11022
22500.000 0.11039
22505.000 0.11071
22510.000 0.11114
22515.000 0.11157
22520.000 0.11199
22525.000 0.11237
22530.000 0.11259
22535.000 0.11271
22540.000 0.11265
22545.000 0.11242
22550.000 0.11208
22555.000 0.11159
22560.000 0.11105
22565.000 0.11048
22570.000 0.10994
22575.000 0.10945
22580.000 0.10908
22585.000 0.10882
22590.000 0.10871
22595.000 0.10876
22600.000 0.10896
22605.000 0.10925
22610.000 0.10965
22615.000 0.11005
22620.000 0.11048
22625.000 0.11085
22630.000 0.11114
22635.000 0.11131
22640.000 0.11134
22645.000 0.11122
22650.000 0.11094
22655.000 0.11054
22660.000 0.11002
22665.000 0.10945
22670.000 0.10882
22675.000 0.10825
22680.000 0.10771
22685.000 0.10725
22690.000 0.10694
22695.000 0.10676
22700.000 0.10674
22705.000 0.10682
22710.000 0.10705
22715.000 0.10739
22720.000 0.10779
22725.000 0.10822
22730.000 0.10868
22735.000 0.10908
22740.000 0.10945
22745.000 0.10971
22750.000 0.10985
22755.000 0.10979
22760.000 0.10962
22765.000 0.10934
22770.000 0.10896
22775.000 0.10851
22780.000 0.10796
22785.000 0.10739
22790.000 0.10682
22795.000 0.10625
22800.000 0.10574
22805.000 0.10528
22810.000 0.10488
22815.000 0.10456
22820.000 0.10434
22825.000 0.10419
22830.000 0.10414
22835.000 0.10414
22840.000 0.10422
22845.000 0.10436
22850.000 0.10451
22855.000 0.10471
22860.000 0.10488
22865.000 0.10505
22870.000 0.10516
22875.000 0.10525
22880.000 0.10528
22885.000 0.10525
22890.000 0.10516
22895.000 0.10505
22900.000 0.10485
22905.000 0.10465
22910.000 0.10439
22915.000 0.10414
22920.000 0.10388
22925.000 0.10362
22930.000 0.10339
22935.000 0.10322
22940.000 0.10311
22945.000 0.10305
22950.000 0.10308
22955.000 0.10322
22960.000 0.10348
22965.000 0.10382
22970.000 0.10428
22975.000 0.10479
22980.000 0.10536
22985.000 0.10599
22990.000 0.10659
22995.000 0.10719
23000.000 0.10774
23005.000 0.10819
23010.000 0.10854
23015.000 0.10874
23020.000 0.10882
23025.000 0.10882
23030.000 0.10865
23035.000 0.10831
23040.000 0.10782
23045.000 0.10728
23050.000 0.10668
23055.000 0.10605
23060.000 0.10542
23065.000 0.10479
23070.000 0.10425
23075.000 0.10379
23080.000 0.10342
23085.000 0.10313
23090.000 0.10296
23095.000 0.10288
23100.000 0.10288
23105.000 0.10293
23110.000 0.10299
23115.000 0.10308
23120.000 0.10316
23125.000 0.10319
23130.000 0.10316
23135.000 0.10308
23140.000 0.10291
23145.000 0.10268
23150.000 0.10239
23155.000 0.10205
23160.000 0.10165
23165.000 0.10125
23170.000 0.10082
23175.000 0.10045
23180.000 0.10011
23185.000 0.09985
23190.000 0.09968
23195.000 0.09962
23200.000 0.09965
23205.000 0.09982
23210.000 0.10005
23215.000 0.10039
23220.000 0.10076
23225.000 0.10119
23230.000 0.10159
23235.000 0.10202
23240.000 0.10239
23245.000 0.10268
23250.000 0.10291
23255.000 0.10305
23260.000 0.10308
23265.000 0.10299
23270.000 0.10279
23275.000 0.10248
23280.000 0.10208
23285.000 0.10159
23290.000 0.10108
23295.000 0.10051
23300.000 0.09993
23305.000 0.09939
23310.000 0.09891
23315.000 0.09845
23320.000 0.09811
23325.000 0.09793
23330.000 0.09788
23335.000 0.09791
23340.000 0.09805
23345.000 0.09825
23350.000 0.09859
23355.000 0.09896
23360.000 0.09939
23365.000 0.09985
23370.000 0.10028
23375.000 0.10071
23380.000 0.10108
23385.000 0.10133
23390.000 0.10153
23395.000 0.10159
23400.000 0.10156
23405.000 0.10139
23410.000 0.10111
23415.000 0.10076
23420.000 0.10031
23425.000 0.09985
23430.000 0.09936
23435.000 0.09888
23440.000 0.09842
23445.000 0.09802
23450.000 0.09768
23455.000 0.09736
23460.000 0.09713
23465.000 0.09696
23470.000 0.09682
23475.000 0.09673
23480.000 0.09668
23485.000 0.09662
23490.000 0.09656
23495.000 0.09648
23500.000 0.09639
23505.000 0.09625
23510.000 0.09608
23515.000 0.09588
23520.000 0.09565
23525.000 0.09536
23530.000 0.09508
23535.000 0.09479
23540.000 0.09453
23545.000 0.09428
23550.000 0.09405
23555.000 0.09385
23560.000 0.09370
23565.000 0.09362
23570.000 0.09356
23575.000 0.09356
23580.000 0.09362
23585.000 0.09368
23590.000 0.09379
23595.000 0.09390
23600.000 0.09402
23605.000 0.09413
23610.000 0.09428
23615.000 0.09439
23620.000 0.09450
23625.000 0.09465
23630.000 0.09479
23635.000 0.09499
23640.000 0.09519
23645.000 0.09542
23650.000 0.09568
23655.000 0.09599
23660.000 0.09630
23665.000 0.09662
23670.000 0.09696
23675.000 0.09728
23680.000 0.09759
23685.000 0.09785
23690.000 0.09802
23695.000 0.09813
23700.000 0.09816
23705.000 0.09808
23710.000 0.09785
23715.000 0.09751
23720.000 0.09702
23725.000 0.09639
23730.000 0.09570
23735.000 0.09493
23740.000 0.09413
23745.000 0.09336
23750.000 0.09265
23755.000 0.09205
23760.000 0.09150
23765.000 0.09110
23770.000 0.09085
23775.000 0.09068
23780.000 0.09065
23785.000 0.09068
23790.000 0.09076
23795.000 0.09090
23800.000 0.09105
23805.000 0.09119
23810.000 0.09130
23815.000 0.09139
23820.000 0.09142
23825.000 0.09142
23830.000 0.09133
23835.000 0.09122
23840.000 0.09108
23845.000 0.09090
23850.000 0.09073
23855.000 0.09056
23860.000 0.09042
23865.000 0.09030
23870.000 0.09025
23875.000 0.09022
23880.000 0.09025
23885.000 0.09030
23890.000 0.09039
23895.000 0.09048
23900.000 0.09059
23905.000 0.09068
23910.000 0.09070
23915.000 0.09073
23920.000 0.09070
23925.000 0.09059
23930.000 0.09039
23935.000 0.09016
23940.000 0.08990
23945.000 0.08965
23950.000 0.08939
23955.000 0.08919
23960.000 0.08905
23965.000 0.08899
23970.000 0.08905
23975.000 0.08919
23980.000 0.08948
23985.000 0.08985
23990.000 0.09030
23995.000 0.09082
24000.000 0.09139
24005.000 0.09196
24010.000 0.09250
24015.000 0.09299
24020.000 0.09336
24025.000 0.09362
24030.000 0.09373
24035.000 0.09368
24040.000 0.09348
24045.000 0.09310
24050.000 0.09259
24055.000 0.09196
24060.000 0.09128
24065.000 0.09059
24070.000 0.08988
24075.000 0.08925
24080.000 0.08873
24085.000 0.08833
24090.000 0.08810
24095.000 0.08805
24100.000 0.08813
24105.000 0.08836
24110.000 0.08873
24115.000 0.08919
24120.000 0.08970
24125.000 0.09025
24130.000 0.09076
24135.000 0.09119
24140.000 0.09150
24145.000 0.09168
24150.000 0.09168
24155.000 0.09150
24160.000 0.09113
24165.000 0.09062
24170.000 0.08999
24175.000 0.08925
24180.000 0.08845
24185.000 0.08765
24190.000 0.08687
24195.000 0.08622
24200.000 0.08567
24205.000 0.08527
24210.000 0.08507
24215.000 0.08505
24220.000 0.08522
24225.000 0.08553
24230.000 0.08596
24235.000 0.08650
24240.000 0.08713
24245.000 0.08776
24250.000 0.08839
24255.000 0.08893
24260.000 0.08936
24265.000 0.08965
24270.000 0.08982
24275.000 0.08985
24280.000 0.08970
24285.000 0.08945
24290.000 0.08905
24295.000 0.08859
24300.000 0.08805
24305.000 0.08750
24310.000 0.08696
24315.000 0.08645
24320.000 0.08602
24325.000 0.08567
24330.000 0.08547
24335.000 0.08539
24340.000 0.08547
24345.000 0.08567
24350.000 0.08599
24355.000 0.08636
24360.000 0.08682
24365.000 0.08725
24370.000 0.08767
24375.000 0.08802
24380.000 0.08827
24385.000 0.08842
24390.000 0.08845
24395.000 0.08836
24400.000 0.08813
24405.000 0.08785
24410.000 0.08745
24415.000 0.08699
24420.000 0.08647
24425.000 0.08593
24430.000 0.08542
24435.000 0.08487
24440.000 0.08439
24445.000 0.08396
24450.000 0.08359
24455.000 0.08330
24460.000 0.08310
24465.000 0.08299
24470.000 0.08299
24475.000 0.08307
24480.000 0.08325
24485.000 0.08350
24490.000 0.08379
24495.000 0.08410
24500.000 0.08445
24505.000 0.08476
24510.000 0.08507
24515.000 0.08539
24520.000 0.08565
24525.000 0.08590
24530.000 0.08610
24535.000 0.08630
24540.000 0.08647
24545.000 0.08662
24550.000 0.08676
24555.000 0.08687
24560.000 0.08699
24565.000 0.08705
24570.000 0.08710
24575.000 0.08713
24580.000 0.08716
24585.000 0.08716
24590.000 0.08713
24595.000 0.08707
24600.000 0.08702
24605.000 0.08696
24610.000 0.08687
24615.000 0.08679
24620.000 0.08670
24625.000 0.08662
24630.000 0.08656
24635.000 0.08650
24640.000 0.08645
24645.000 0.08642
24650.000 0.08639
24655.000 0.08636
24660.000 0.08636
24665.000 0.08633
24670.000 0.08630
24675.000 0.08625
24680.000 0.08616
24685.000 0.08602
24690.000 0.08587
24695.000 0.08567
24700.000 0.08542
24705.000 0.08513
24710.000 0.08482
24715.000 0.08447
24720.000 0.08413
24725.000 0.08379
24730.000 0.08347
24735.000 0.08319
24740.000 0.08296
24745.000 0.08279
24750.000 0.08270
24755.000 0.08267
24760.000 0.08273
24765.000 0.08285
24770.000 0.08305
24775.000 0.08325
24780.000 0.08350
24785.000 0.08379
24790.000 0.08405
24795.000 0.08427
24800.000 0.08447
24805.000 0.08462
24810.000 0.08467
24815.000 0.08462
24820.000 0.08450
24825.000 0.08427
24830.000 0.08396
24835.000 0.08356
24840.000 0.08310
24845.000 0.08262
24850.000 0.08210
24855.000 0.08162
24860.000 0.08119
24865.000 0.08082
24870.000 0.08053
24875.000 0.08033
24880.000 0.08024
24885.000 0.08024
24890.000 0.08039
24895.000 0.08064
24900.000 0.08099
24905.000 0.08136
24910.000 0.08173
24915.000 0.08210
24920.000 0.08247
24925.000 0.08276
24930.000 0.08299
24935.000 0.08310
24940.000 0.08316
24945.000 0.08310
24950.000 0.08287
24955.000 0.08250
24960.000 0.08216
24965.000 0.08213
24970.000 0.08207
24975.000 0.08116
24980.000 0.07859
24985.000 0.07424
24990.000 0.00000
24995.000 0.00000
25000.000 0.00000
